Instance,Plan,N_cust,K_routes,Travel_km,Fixed_cost,none_rec,none_TBC,none_S,none_HO,none_fail,none_cvar95,none_p95,none_pem,none_fit_s,v1_end_rec,v1_end_TBC,v1_end_S,v1_end_HO,v1_end_fail,v1_end_saving,v1_end_gap,v1_end_cvar95,v1_end_p95,v1_end_pem,v1_end_fit_s,v1_myo_rec,v1_myo_TBC,v1_myo_S,v1_myo_HO,v1_myo_fail,v1_myo_saving,v1_myo_gap,v1_myo_cvar95,v1_myo_p95,v1_myo_pem,v1_myo_fit_s,fb_tau_rec,fb_tau_TBC,fb_tau_S,fb_tau_HO,fb_tau_fail,fb_tau_saving,fb_tau_gap,fb_tau_cvar95,fb_tau_p95,fb_tau_pem,fb_tau_fit_s,pi1_rec,pi1_TBC,pi1_S,pi1_HO,pi1_fail,pi1_saving,pi1_gap,pi1_cvar95,pi1_p95,pi1_pem,pi1_fit_s,pi2_rec,pi2_TBC,pi2_S,pi2_HO,pi2_fail,pi2_saving,pi2_gap,pi2_cvar95,pi2_p95,pi2_pem,pi2_fit_s,pi3_rec,pi3_TBC,pi3_S,pi3_HO,pi3_fail,pi3_saving,pi3_gap,pi3_cvar95,pi3_p95,pi3_pem,pi3_fit_s,rollout_rec,rollout_TBC,rollout_S,rollout_HO,rollout_fail,rollout_saving,rollout_gap,rollout_cvar95,rollout_p95,rollout_pem,rollout_fit_s,restock_rec,restock_TBC,restock_S,restock_HO,restock_fail,restock_saving,restock_gap,restock_cvar95,restock_p95,restock_pem,restock_fit_s,thr_k_rec,thr_k_TBC,thr_k_S,thr_k_HO,thr_k_fail,thr_k_saving,thr_k_gap,thr_k_cvar95,thr_k_p95,thr_k_pem,thr_k_fit_s,ro_theta_rec,ro_theta_TBC,ro_theta_S,ro_theta_HO,ro_theta_fail,ro_theta_saving,ro_theta_gap,ro_theta_cvar95,ro_theta_p95,ro_theta_pem,ro_theta_fit_s,thr2_rec,thr2_TBC,thr2_S,thr2_HO,thr2_fail,thr2_saving,thr2_gap,thr2_cvar95,thr2_p95,thr2_pem,thr2_fit_s,dp3_n_rec,dp3_n_TBC,dp3_n_S,dp3_n_HO,dp3_n_fail,dp3_n_saving,dp3_n_gap,dp3_n_cvar95,dp3_n_p95,dp3_n_pem,dp3_n_fit_s,v2_lsm_rec,v2_lsm_TBC,v2_lsm_S,v2_lsm_HO,v2_lsm_fail,v2_lsm_saving,v2_lsm_gap,v2_lsm_cvar95,v2_lsm_p95,v2_lsm_pem,v2_lsm_fit_s,v2_act_rec,v2_act_TBC,v2_act_S,v2_act_HO,v2_act_fail,v2_act_saving,v2_act_gap,v2_act_cvar95,v2_act_p95,v2_act_pem,v2_act_fit_s,v2_cf_rec,v2_cf_TBC,v2_cf_S,v2_cf_HO,v2_cf_fail,v2_cf_saving,v2_cf_gap,v2_cf_cvar95,v2_cf_p95,v2_cf_pem,v2_cf_fit_s,dp_n_rec,dp_n_TBC,dp_n_S,dp_n_HO,dp_n_fail,dp_n_saving,dp_n_gap,dp_n_cvar95,dp_n_p95,dp_n_pem,dp_n_fit_s,dp_xl_rec,dp_xl_TBC,dp_xl_S,dp_xl_HO,dp_xl_fail,dp_xl_saving,dp_xl_gap,dp_xl_cvar95,dp_xl_p95,dp_xl_pem,dp_xl_fit_s,dp_xl3_rec,dp_xl3_TBC,dp_xl3_S,dp_xl3_HO,dp_xl3_fail,dp_xl3_saving,dp_xl3_gap,dp_xl3_cvar95,dp_xl3_p95,dp_xl3_pem,dp_xl3_fit_s,oracle_rec,oracle_TBC,oracle_S,oracle_HO,oracle_fail,oracle_saving,oracle_cvar95,oracle_p95,oracle_pem,oracle_fit_s,oracle3_rec,oracle3_TBC,oracle3_S,oracle3_HO,oracle3_fail,oracle3_saving,oracle3_cvar95,oracle3_p95,oracle3_pem,oracle3_fit_s,online_us,act_routes,n_routes,solve_s,eval_s
CON3-1,Det,50,4,554.47,195.45,105.65,301.1,0,0.0,0.3448,280.951,269.107,0.5775,0.0,82.76,278.2,3,0.2797,0.0971,21.67,38.11,212.41,200.331,0.335,0.2249,93.96,289.41,3,0.3868,0.0563,11.06,68.41,209.545,200.73,0.209,0.0193,82.22,277.67,3,0.2835,0.0936,22.18,36.67,215.511,200.73,0.324,0.2072,86.99,282.43,3,0.3075,0.0949,17.66,49.55,226.96,200.064,0.321,0.0173,88.66,284.1,3,0.2358,0.1406,16.08,54.07,276.744,256.326,0.3725,0.0179,84.32,279.77,3,0.2765,0.102,20.19,42.35,248.082,201.819,0.3275,0.0186,87.4,282.85,3,0.3464,0.065,17.27,50.68,209.76,200.73,0.2405,0.0204,104.79,300.24,1,0.0168,0.3321,0.81,97.68,285.75,275.134,0.5615,0.0239,80.78,276.23,3,0.2841,0.0896,23.54,32.77,215.484,198.954,0.311,0.9149,82.13,277.57,3,0.2818,0.0944,22.27,36.41,212.698,200.73,0.3295,0.1718,81.81,277.25,3,0.2696,0.0899,22.57,35.55,214.53,200.73,0.311,1.4516,80.09,275.53,3,0.2574,0.0874,24.2,30.9,221.587,198.954,0.2995,0.0257,80.67,276.12,3,0.281,0.0917,23.64,32.48,215.541,198.954,0.3185,0.0239,79.31,274.76,3,0.2591,0.0917,24.93,28.81,215.652,198.954,0.3175,0.0966,78.95,274.4,3,0.251,0.0892,25.27,27.84,215.717,198.954,0.308,0.1112,80.58,276.03,3,0.286,0.0884,23.73,32.24,215.814,198.954,0.309,0.01,80.16,275.61,3,0.2792,0.0919,24.13,31.1,214.102,198.954,0.3195,0.296,78.53,273.98,3,0.2456,0.0877,25.67,26.69,214.941,199.352,0.3035,0.8912,68.66,264.1,3,0.2958,0.049,35.02,206.253,193.682,0.181,0.0,63.69,259.14,0,0.0,0.0,39.72,206.253,193.682,0.0,0.0,0.062,2,4,0.0,4.4
CON3-1,SAA,50,5,616.97,236.7,8.67,245.37,0,0.0,0.0376,155.147,52.817,0.0725,0.0,7.65,244.35,1,0.0326,0.0078,11.76,57.69,132.11,52.817,0.034,0.2268,10.07,246.77,2,0.0471,0.0035,-16.15,158.07,150.032,82.617,0.016,0.0212,7.66,244.36,1,0.0335,0.0071,11.68,58.01,132.102,52.817,0.0305,0.223,8.25,244.95,0,0.0121,0.0266,4.85,82.55,146.339,52.817,0.068,0.022,7.82,244.52,1,0.0201,0.0192,9.86,64.55,138.206,40.306,0.0515,0.0229,8.04,244.73,0,0.0146,0.0235,7.34,73.6,142.947,52.817,0.0645,0.0224,8.14,244.84,1,0.0379,0.0051,6.1,78.06,134.976,63.64,0.022,0.0293,4.41,241.11,3,0.0581,0.0058,49.09,-76.56,67.169,29.163,0.023,0.0205,7.31,244.01,1,0.0326,0.0076,15.68,43.61,127.53,39.263,0.031,0.6154,7.31,244.01,1,0.0302,0.0093,15.66,43.69,127.335,40.306,0.0385,0.2048,4.26,240.96,0,0.0,0.0049,50.89,-83.03,64.77,28.567,0.0195,1.5842,5.67,242.37,0,0.0,0.0028,34.59,-24.4,75.92,42.861,0.01,0.0243,7.3,244.0,1,0.0319,0.0082,15.78,43.27,127.195,39.263,0.032,0.0257,3.47,240.17,0,0.0,0.0037,59.94,-115.56,58.802,23.424,0.016,0.0967,3.43,240.13,0,0.0004,0.0036,60.42,-117.27,58.37,22.788,0.0155,0.103,8.21,244.91,1,0.022,0.0192,5.36,80.73,142.2,53.219,0.046,0.0117,7.06,243.76,1,0.0295,0.0092,18.58,33.17,123.337,39.263,0.0365,0.4158,3.33,240.02,0,0.0,0.003,61.63,-121.66,56.07,23.398,0.012,0.9655,6.26,242.96,1,0.0376,0.0,27.81,111.21,36.208,0.0,0.0,2.19,238.89,0,0.0,0.0,74.69,40.185,16.018,0.0,0.0,0.068,5,5,0.0,4.4
CON3-0,Det,50,4,617.59,201.76,86.36,288.12,0,0.0,0.2548,243.79,194.858,0.5765,0.0,78.52,280.28,2,0.1258,0.1397,9.08,52.0,215.213,176.759,0.476,0.2209,91.81,293.57,2,0.2255,0.0958,-6.3,133.33,224.482,206.543,0.3735,0.0203,78.19,279.95,2,0.1301,0.1349,9.46,49.96,215.213,176.759,0.468,0.2061,81.21,282.97,2,0.1551,0.1319,5.97,68.44,220.099,188.849,0.442,0.0161,79.63,281.39,2,0.1325,0.1421,7.8,58.75,222.489,188.849,0.4495,0.017,78.82,280.58,1,0.1106,0.15,8.73,53.84,217.773,167.222,0.497,0.0166,80.98,282.74,2,0.1795,0.1032,6.23,67.03,216.439,177.504,0.391,0.0201,79.37,281.13,1,0.0829,0.1954,8.09,57.21,217.479,195.085,0.557,0.0211,76.26,278.02,2,0.1485,0.12,11.7,38.13,210.198,167.444,0.4285,0.8473,77.7,279.46,2,0.1199,0.1456,10.04,46.93,214.692,177.519,0.478,0.1651,72.86,274.62,1,0.0381,0.1263,15.64,17.31,214.734,188.509,0.433,1.4167,72.38,274.14,1,0.0673,0.1222,16.2,14.36,217.43,186.615,0.401,0.0246,76.02,277.78,2,0.1516,0.1174,11.98,36.67,210.542,167.341,0.4175,0.0248,71.8,273.56,1,0.0496,0.1236,16.86,10.84,216.206,190.348,0.4095,0.0966,70.09,271.85,1,0.0703,0.1128,18.84,0.37,192.585,176.57,0.4065,0.1058,76.58,278.34,2,0.1374,0.13,11.33,40.11,218.99,177.817,0.4365,0.0116,75.91,277.67,2,0.1446,0.1219,12.11,35.99,208.149,167.222,0.4315,0.3163,70.02,271.78,1,0.0644,0.1156,18.92,-0.05,192.723,179.719,0.417,0.8935,70.03,271.79,2,0.1658,0.089,18.91,198.564,164.352,0.356,0.0,61.5,263.26,0,0.0,0.0,28.78,175.209,161.998,0.0,0.0,0.07,3,4,0.0,4.3
CON3-0,SAA,50,5,700.38,245.04,9.75,254.79,0,0.0,0.038,175.355,72.818,0.0725,0.0,8.79,253.83,1,0.0327,0.0092,9.86,65.83,148.017,72.818,0.0385,0.2623,10.34,255.37,2,0.0471,0.003,-5.96,120.67,155.234,79.858,0.015,0.0239,8.69,253.73,1,0.0316,0.0097,10.94,62.1,148.26,66.035,0.04,0.251,9.44,254.48,0,0.013,0.0267,3.2,88.91,166.46,72.818,0.064,0.0209,8.59,253.63,1,0.0211,0.0186,11.94,58.63,148.702,72.571,0.0585,0.0239,8.89,253.93,0,0.0175,0.0213,8.85,69.35,156.966,72.571,0.066,0.0235,8.99,254.03,1,0.0374,0.0061,7.83,72.87,148.837,73.171,0.0275,0.029,5.86,250.89,2,0.051,0.0105,39.97,-38.5,98.639,33.036,0.0375,0.0216,8.12,253.16,1,0.0321,0.0081,16.78,41.85,140.839,65.757,0.0355,0.5551,8.23,253.27,1,0.0287,0.0108,15.61,45.9,143.063,60.243,0.0435,0.2005,5.73,250.76,0,0.0062,0.0064,41.3,-43.12,94.505,40.471,0.0295,1.983,5.92,250.96,0,0.0,0.0075,39.26,-36.03,85.85,42.033,0.0265,0.0339,8.11,253.15,1,0.0315,0.0086,16.85,41.62,140.915,69.951,0.0375,0.0288,4.0,249.03,0,0.0,0.0054,59.02,-104.54,70.246,24.631,0.0245,0.0941,4.0,249.03,0,0.0,0.0054,59.02,-104.54,70.246,24.631,0.0245,0.1136,8.93,253.97,1,0.0166,0.023,8.44,70.77,157.0,72.365,0.059,0.0125,7.94,252.98,1,0.0288,0.0104,18.57,35.66,138.467,65.898,0.043,0.4305,3.71,248.75,0,0.0,0.0035,61.98,-114.78,62.588,26.547,0.016,1.1478,6.94,251.98,1,0.038,0.0,28.86,123.771,46.462,0.0,0.0,2.33,247.37,0,0.0,0.0,76.06,42.345,16.518,0.0,0.0,0.072,5,5,0.0,5.0
CON3-2,Det,50,4,523.46,192.35,95.82,288.17,0,0.0,0.3103,281.678,278.365,0.5395,0.0,73.84,266.19,3,0.2266,0.1098,22.94,35.78,219.292,185.005,0.359,0.2839,82.13,274.48,3,0.3283,0.066,14.29,59.99,211.104,185.005,0.2405,0.0237,73.9,266.24,3,0.2278,0.1061,22.88,35.93,232.039,199.744,0.3435,0.2441,79.37,271.72,3,0.2631,0.1035,17.16,51.94,230.349,200.01,0.3415,0.0176,86.41,278.75,2,0.1489,0.1839,9.82,72.49,281.678,278.365,0.3995,0.0185,82.4,274.75,2,0.1876,0.1457,14.01,60.78,248.041,240.708,0.3975,0.0181,78.85,271.2,3,0.3007,0.075,17.71,50.41,211.269,185.005,0.267,0.0218,95.24,287.58,0,0.012,0.303,0.61,98.3,286.755,280.297,0.5395,0.0245,73.07,265.42,3,0.2239,0.1074,23.74,33.53,229.697,198.547,0.3485,1.1523,74.19,266.54,3,0.2126,0.121,22.57,36.8,224.626,193.185,0.388,0.1809,73.88,266.22,3,0.2278,0.1053,22.9,35.87,232.538,199.744,0.3405,1.5281,73.59,265.93,3,0.219,0.1049,23.2,35.03,233.949,209.219,0.3355,0.0292,72.87,265.22,3,0.2265,0.1049,23.95,32.94,229.771,198.543,0.342,0.0304,72.57,264.91,3,0.2219,0.1045,24.27,32.05,230.061,198.547,0.3405,0.1236,72.37,264.72,3,0.2195,0.1031,24.47,31.48,230.156,198.63,0.336,0.1339,73.48,265.83,3,0.2428,0.0955,23.31,34.73,228.387,197.062,0.316,0.012,72.75,265.09,3,0.2377,0.0969,24.08,32.58,227.129,197.342,0.3245,0.341,72.26,264.6,3,0.224,0.097,24.59,31.15,230.045,197.874,0.3215,0.9876,61.6,253.95,3,0.2569,0.0534,35.71,190.983,183.022,0.208,0.0,58.53,250.88,0,0.0,0.0,38.91,190.983,183.022,0.0,0.0,0.092,3,4,0.0,5.0
CON3-2,SAA,50,5,570.07,232.01,5.53,237.54,0,0.0,0.0236,104.66,44.717,0.0575,0.0,5.34,237.34,1,0.0215,0.0064,3.48,86.99,94.599,38.264,0.028,0.2266,6.74,238.75,1,0.0327,0.0019,-21.92,181.96,110.48,44.643,0.009,0.0223,5.34,237.34,1,0.0215,0.0064,3.48,86.99,94.599,38.264,0.028,0.2235,5.28,237.29,0,0.0115,0.0138,4.52,83.1,96.768,38.264,0.038,0.0186,4.96,236.97,1,0.0168,0.0087,10.28,61.56,91.867,38.264,0.0265,0.0202,4.94,236.95,0,0.0123,0.0121,10.7,60.0,92.707,38.264,0.037,0.0202,5.69,237.7,1,0.0276,0.0025,-2.87,110.71,98.175,42.528,0.012,0.0248,3.0,235.01,2,0.043,0.0026,45.79,-71.19,46.286,21.026,0.0105,0.0219,4.85,236.85,1,0.0229,0.0038,12.38,53.72,87.101,38.264,0.0165,0.4916,5.18,237.18,1,0.0227,0.005,6.41,76.04,91.657,38.264,0.0225,0.1852,3.0,235.01,0,0.0,0.0022,45.74,-70.98,45.356,21.026,0.009,1.8517,4.43,236.43,0,0.0,0.0065,19.96,25.39,60.352,25.215,0.0165,0.0292,4.75,236.76,1,0.022,0.0041,14.05,47.49,86.507,38.264,0.0175,0.0266,2.19,234.19,0,0.0,0.0026,60.48,-126.1,40.106,11.727,0.0115,0.0993,2.19,234.19,0,0.0001,0.0028,60.46,-126.03,40.128,11.727,0.011,0.0963,5.22,237.22,0,0.0102,0.0148,5.69,78.74,96.361,41.142,0.0455,0.0115,4.58,236.59,0,0.0184,0.0062,17.11,36.02,85.399,38.264,0.027,0.417,2.04,234.05,0,0.0,0.0012,63.11,-135.95,36.674,11.742,0.0055,0.9789,4.05,236.06,1,0.0236,0.0,26.75,76.497,31.567,0.0,0.0,1.33,233.34,0,0.0,0.0,75.92,25.455,9.684,0.0,0.0,0.074,5,5,0.0,4.6
CON3-3,Det,50,4,607.67,200.77,108.86,309.62,0,0.0,0.3615,277.937,271.509,0.5735,0.0,75.81,276.58,3,0.3,0.0801,30.36,29.4,195.312,179.198,0.263,0.2589,93.66,294.42,3,0.4563,0.0104,13.96,67.52,167.941,151.079,0.04,0.0224,74.85,275.61,3,0.3174,0.0626,31.24,27.34,196.146,177.532,0.2125,0.2473,81.89,282.66,3,0.3858,0.0444,24.77,42.39,208.198,194.341,0.16,0.0187,84.97,285.73,3,0.3115,0.1053,21.95,48.96,229.842,221.261,0.32,0.0247,76.8,277.57,3,0.3076,0.0733,29.45,31.52,200.425,186.21,0.2495,0.0221,83.93,284.7,3,0.4124,0.0168,22.9,46.75,168.181,151.079,0.064,0.0291,105.67,306.44,1,0.0469,0.3289,2.93,93.19,288.533,277.136,0.542,0.0304,72.89,273.65,3,0.3356,0.0479,33.04,23.15,195.276,175.846,0.1735,1.0484,74.52,275.29,3,0.2961,0.0781,31.54,26.64,193.197,176.489,0.25,0.2127,75.68,276.45,3,0.3255,0.0425,30.48,29.12,193.343,173.634,0.151,1.7437,70.74,271.51,3,0.2853,0.0455,35.01,18.57,200.382,176.508,0.1635,0.0378,72.72,273.49,3,0.3351,0.0481,33.2,22.79,195.15,175.441,0.1735,0.0268,71.93,272.7,3,0.3213,0.047,33.92,21.1,195.644,175.441,0.1685,0.1061,69.53,270.3,3,0.28,0.0461,36.13,15.97,195.831,175.441,0.1675,0.1121,72.39,273.16,3,0.3432,0.0416,33.5,22.09,189.095,170.067,0.1525,0.0125,72.31,273.07,3,0.3347,0.0471,33.58,21.91,189.774,169.577,0.1705,0.3475,69.3,270.07,3,0.2706,0.0481,36.34,15.49,192.14,171.268,0.1705,1.1611,62.05,262.82,3,0.3583,0.0032,43.0,154.581,142.799,0.0125,0.0,53.47,254.24,0,0.0,0.0,50.88,154.499,142.799,0.0,0.0,0.071,3,4,0.0,5.2
CON3-3,SAA,50,5,713.82,246.38,12.17,258.55,0,0.0,0.0568,180.537,90.538,0.106,0.0,11.37,257.75,2,0.0446,0.0157,6.6,73.55,161.498,104.312,0.0605,0.2449,16.91,263.29,3,0.0764,0.0057,-38.91,255.89,190.441,137.501,0.025,0.0374,11.37,257.75,2,0.0446,0.0157,6.6,73.55,161.498,104.312,0.0605,0.342,11.46,257.84,1,0.0276,0.0318,5.82,76.67,164.518,104.231,0.0925,0.0232,10.77,257.15,2,0.036,0.0231,11.53,53.8,156.862,91.174,0.07,0.0248,10.6,256.98,1,0.0383,0.0197,12.93,48.2,152.91,85.726,0.072,0.023,11.84,258.23,2,0.0519,0.0116,2.69,89.23,162.541,110.267,0.0485,0.0315,5.83,252.21,3,0.0761,0.0103,52.08,-108.65,80.564,40.908,0.034,0.0226,10.47,256.85,2,0.0433,0.0162,13.96,44.06,149.053,96.963,0.063,0.7288,10.75,257.13,2,0.0446,0.0155,11.66,53.3,151.65,98.925,0.061,0.2405,5.71,252.09,0,0.0,0.007,53.06,-112.58,73.452,39.165,0.027,1.9148,5.89,252.27,0,0.0,0.0057,51.6,-106.72,72.835,45.052,0.018,0.0309,10.43,256.81,2,0.0428,0.0164,14.33,42.61,148.551,96.615,0.064,0.0358,4.76,251.14,0,0.0,0.0073,60.93,-144.09,68.345,35.736,0.026,0.1037,4.78,251.17,0,0.0,0.0073,60.7,-143.19,68.959,35.716,0.027,0.096,10.81,257.19,2,0.0418,0.0185,11.19,55.17,153.328,97.097,0.068,0.02,10.38,256.76,2,0.0395,0.0187,14.73,40.99,149.107,86.371,0.067,0.4938,4.55,250.93,0,0.0,0.0054,62.62,-150.85,64.622,35.745,0.0205,1.0807,9.13,255.52,2,0.0568,0.0,24.96,134.593,66.626,0.0,0.0,2.82,249.2,0,0.0,0.0,76.85,42.968,21.712,0.0,0.0,0.075,5,5,0.0,5.1
CON3-5,Det,50,4,593.84,199.38,130.77,330.16,0,0.0,0.3596,298.55,296.065,0.5915,0.0,105.05,304.44,3,0.2615,0.1465,19.67,47.23,264.916,258.657,0.419,0.2588,108.3,307.68,3,0.3604,0.0995,17.19,53.88,259.43,259.167,0.3135,0.0222,103.96,303.34,3,0.2605,0.1437,20.51,44.97,264.787,258.657,0.4145,0.2527,113.93,313.32,3,0.2602,0.1726,12.88,65.44,298.449,288.812,0.4315,0.0167,109.27,308.65,3,0.2878,0.1435,16.44,55.87,268.625,258.657,0.401,0.0178,123.4,322.79,1,0.0729,0.2945,5.63,84.88,296.414,292.498,0.5765,0.0168,106.32,305.7,3,0.3439,0.1035,18.7,49.82,259.43,258.683,0.3245,0.0197,129.46,328.84,1,0.036,0.3375,1.0,97.3,307.268,299.771,0.5745,0.0239,103.87,303.25,3,0.265,0.1414,20.57,44.79,265.444,258.657,0.408,1.3875,104.13,303.52,3,0.2777,0.135,20.37,45.33,263.181,259.167,0.3965,0.1625,103.74,303.13,3,0.269,0.1329,20.67,44.54,264.35,258.657,0.389,1.496,104.22,303.61,3,0.2776,0.122,20.3,45.52,265.517,258.657,0.3635,0.0274,104.07,303.45,3,0.2807,0.1329,20.42,45.2,264.888,258.657,0.3895,0.0335,103.57,302.96,3,0.2521,0.1378,20.8,44.19,268.989,258.657,0.3955,0.1124,103.52,302.9,3,0.2717,0.1318,20.84,44.08,264.888,258.657,0.385,0.1185,104.05,303.44,3,0.2861,0.1299,20.43,45.17,265.388,258.657,0.382,0.0099,103.45,302.83,3,0.2915,0.1258,20.9,43.92,262.71,258.657,0.3765,0.29,103.28,302.67,3,0.2764,0.1256,21.02,43.59,263.605,258.657,0.3725,1.0496,82.04,281.42,3,0.2893,0.0704,37.26,258.557,255.78,0.226,0.0,76.76,276.14,0,0.0,0.0,41.31,258.505,255.78,0.0,0.0,0.065,4,4,0.0,5.1
CON3-5,SAA,50,5,630.37,238.04,5.2,243.24,0,0.0,0.022,99.301,36.838,0.0565,0.0,5.33,243.37,1,0.0232,0.0039,-2.56,108.99,95.027,36.509,0.017,0.2161,6.9,244.94,1,0.0321,0.0021,-32.76,214.92,106.125,53.477,0.0095,0.0196,5.33,243.37,1,0.0232,0.0039,-2.56,108.99,95.027,36.509,0.017,0.2316,4.91,242.95,0,0.0102,0.0129,5.5,80.71,92.263,30.688,0.0425,0.0194,4.69,242.72,0,0.0112,0.0117,9.89,65.32,86.606,36.874,0.038,0.0187,4.76,242.79,0,0.0094,0.013,8.55,70.01,89.959,35.443,0.041,0.0207,5.48,243.52,1,0.0249,0.0033,-5.4,118.96,95.2,37.413,0.014,0.0223,2.82,240.86,1,0.0257,0.0057,45.8,-60.67,51.391,13.497,0.022,0.0191,4.54,242.58,1,0.0195,0.005,12.73,55.34,82.493,35.591,0.021,0.5587,4.68,242.71,1,0.0194,0.0053,10.08,64.64,84.07,35.426,0.021,0.1725,2.86,240.9,0,0.0,0.0062,44.94,-57.66,52.625,12.903,0.0245,1.6562,4.21,242.24,0,0.0,0.0043,19.13,32.9,59.287,26.662,0.0145,0.0246,4.35,242.39,1,0.0181,0.0052,16.3,42.8,80.423,31.855,0.022,0.0261,2.35,240.38,0,0.0,0.0034,54.87,-92.5,43.114,11.351,0.015,0.0813,2.28,240.32,0,0.0,0.0033,56.13,-96.93,41.801,11.351,0.0145,0.0767,5.16,243.2,1,0.0179,0.0084,0.71,97.49,90.754,31.855,0.029,0.0133,4.33,242.37,1,0.0165,0.0064,16.7,41.42,80.185,35.37,0.0255,0.3923,2.03,240.06,0,0.0,0.0019,61.05,-114.19,37.189,11.303,0.0095,0.9345,3.72,241.76,1,0.022,0.0,28.5,70.567,29.46,0.0,0.0,1.26,239.29,0,0.0,0.0,75.85,24.421,5.838,0.0,0.0,0.062,5,5,0.0,4.3
CON3-6,Det,50,4,515.59,191.56,99.91,291.47,0,0.0,0.2883,272.54,262.69,0.5715,0.0,76.07,267.62,2,0.2146,0.0956,23.87,37.85,214.715,209.801,0.3265,0.2694,81.78,273.34,3,0.3244,0.0409,18.15,52.74,210.729,209.681,0.1585,0.0269,75.19,266.75,2,0.2157,0.0912,24.74,35.57,214.602,209.128,0.315,0.2869,79.72,271.27,2,0.2619,0.0822,20.22,47.36,230.018,209.899,0.267,0.0214,86.09,277.65,2,0.1739,0.1442,13.84,63.97,261.214,244.672,0.388,0.0236,95.01,286.57,1,0.0517,0.2436,4.91,87.23,272.54,262.69,0.5075,0.0218,76.99,268.55,3,0.2884,0.0521,22.94,40.26,211.605,209.681,0.1945,0.0275,98.16,289.72,1,0.0464,0.2593,1.76,95.43,282.455,270.336,0.56,0.0276,73.74,265.3,2,0.2323,0.0793,26.2,31.79,217.861,208.869,0.2735,1.0889,75.5,267.06,2,0.2106,0.0955,24.43,36.38,215.148,209.248,0.3295,0.2113,74.44,266.0,2,0.2122,0.085,25.49,33.61,216.633,209.248,0.2935,1.756,73.09,264.65,2,0.1832,0.081,26.85,30.09,227.177,204.074,0.271,0.0279,73.61,265.17,2,0.2336,0.0776,26.32,31.46,217.763,208.869,0.2695,0.0269,71.73,263.29,2,0.1916,0.0756,28.2,26.55,221.375,199.369,0.2625,0.1172,71.71,263.27,2,0.1945,0.0777,28.22,26.5,221.392,199.369,0.2685,0.1356,74.27,265.83,3,0.239,0.0752,25.66,33.18,217.279,208.869,0.267,0.012,72.96,264.52,2,0.2409,0.0719,26.98,29.75,216.408,208.869,0.255,0.3496,71.3,262.86,2,0.2049,0.0703,28.64,25.42,217.844,198.028,0.248,1.0258,61.54,253.1,3,0.2578,0.0305,38.4,207.865,203.394,0.122,0.0,57.04,248.6,0,0.0,0.0,42.91,199.826,185.797,0.0,0.0,0.079,4,4,0.0,5.2
CON3-6,SAA,50,5,562.39,231.24,5.73,236.97,0,0.0,0.0245,103.461,42.59,0.064,0.0,5.43,236.67,1,0.0224,0.0055,5.18,81.13,92.763,37.985,0.0245,0.2194,6.78,238.02,1,0.031,0.0024,-18.38,166.9,101.052,49.96,0.0115,0.0204,5.42,236.66,1,0.023,0.005,5.35,80.54,92.307,37.985,0.0225,0.2293,5.33,236.56,1,0.0138,0.0122,7.01,74.47,94.097,35.076,0.0395,0.0162,5.18,236.41,1,0.0149,0.0111,9.63,64.94,89.977,37.211,0.0365,0.0173,5.47,236.71,0,0.0071,0.0179,4.45,83.8,98.899,38.012,0.052,0.0174,5.49,236.73,1,0.0247,0.0038,4.14,84.92,90.959,38.248,0.018,0.0211,3.49,234.73,1,0.0327,0.0065,39.0,-41.98,58.924,19.82,0.0285,0.0177,4.88,236.12,1,0.0213,0.0054,14.73,46.38,85.618,37.211,0.0235,0.4963,5.09,236.33,1,0.0195,0.0073,11.15,59.41,88.406,37.608,0.032,0.1593,3.82,235.06,0,0.0109,0.0035,33.35,-21.42,67.666,35.076,0.0165,1.4746,4.23,235.47,0,0.0,0.0081,26.1,4.97,61.879,29.032,0.029,0.0223,4.79,236.03,1,0.0202,0.0058,16.39,40.34,84.407,37.211,0.0255,0.0244,2.47,233.71,0,0.0,0.0028,56.8,-106.78,39.999,15.514,0.013,0.0775,2.39,233.63,0,0.0002,0.0027,58.3,-112.24,38.367,15.514,0.0125,0.0797,5.4,236.64,1,0.0142,0.0127,5.68,79.31,91.59,37.608,0.0425,0.0108,4.72,235.95,1,0.0181,0.0071,17.67,35.68,82.964,37.211,0.029,0.3778,2.14,233.38,0,0.0,0.0015,62.66,-128.11,36.003,15.514,0.007,0.8789,4.15,235.39,1,0.0245,0.0,27.47,74.304,32.462,0.0,0.0,1.41,232.65,0,0.0,0.0,75.4,25.898,10.588,0.0,0.0,0.06,5,5,0.0,4.0
CON3-4,Det,50,4,599.73,199.97,136.38,336.35,0,0.0,0.38,302.27,299.937,0.6,0.0,94.36,294.34,3,0.3379,0.0831,30.81,34.52,234.63,215.573,0.2785,0.26,98.85,298.82,3,0.4602,0.0219,27.52,41.51,203.054,179.085,0.081,0.024,94.69,294.66,3,0.3405,0.0813,30.57,35.02,234.238,217.224,0.273,0.2621,100.17,300.14,3,0.4045,0.0586,26.55,43.57,219.76,186.066,0.208,0.0199,109.26,309.23,3,0.3063,0.1313,19.89,57.73,278.091,267.48,0.372,0.0214,116.92,316.89,2,0.2358,0.1733,14.27,69.67,264.813,255.732,0.5325,0.021,96.82,296.8,3,0.4391,0.03,29.01,38.35,206.409,181.973,0.11,0.0248,135.52,335.49,1,0.0204,0.3652,0.63,98.65,313.947,309.628,0.5965,0.0299,93.06,293.03,3,0.3508,0.0725,31.77,32.48,230.717,212.759,0.245,1.4537,94.69,294.67,3,0.337,0.0854,30.57,35.03,232.554,212.317,0.2815,0.2068,93.66,293.64,3,0.3134,0.0912,31.32,33.42,237.902,219.727,0.298,1.8776,94.1,294.07,3,0.3322,0.0724,31.0,34.11,224.534,196.149,0.25,0.0332,92.65,292.63,3,0.3469,0.0735,32.06,31.85,231.442,211.995,0.246,0.0313,92.57,292.54,3,0.3476,0.0722,32.13,31.72,230.672,211.995,0.2445,0.1236,91.71,291.68,3,0.3269,0.0726,32.76,30.37,231.156,204.974,0.2445,0.1366,93.4,293.37,3,0.3646,0.0654,31.52,33.01,223.41,195.246,0.223,0.0117,92.02,292.0,3,0.3661,0.0611,32.52,30.87,223.177,195.246,0.207,0.335,91.56,291.53,3,0.3456,0.0606,32.87,30.14,225.39,196.149,0.206,1.1356,72.22,272.19,3,0.375,0.005,47.05,166.853,149.507,0.0175,0.0,66.67,266.64,0,0.0,0.0,51.12,166.372,149.507,0.0,0.0,0.083,3,4,0.0,5.8
CON3-4,SAA,50,5,650.56,240.06,6.03,246.08,0,0.0,0.0289,108.951,39.463,0.065,0.0,5.93,245.98,1,0.0193,0.0124,1.62,93.09,104.219,41.873,0.0505,0.2299,8.04,248.09,1,0.0358,0.0044,-33.37,242.62,125.013,60.596,0.0205,0.0218,5.93,245.99,1,0.0192,0.0125,1.56,93.32,104.285,41.873,0.0505,0.2273,5.66,245.72,0,0.0115,0.0181,6.07,74.06,101.339,39.463,0.057,0.0175,5.66,245.71,0,0.0145,0.0158,6.14,73.77,101.63,37.779,0.047,0.0194,5.77,245.82,0,0.0107,0.0192,4.3,81.64,103.897,39.463,0.0555,0.0192,6.13,246.19,1,0.0262,0.007,-1.79,107.64,104.69,42.176,0.0315,0.0235,3.28,243.34,1,0.0392,0.0067,45.57,-94.72,54.622,20.768,0.029,0.0198,5.62,245.67,1,0.0235,0.0087,6.76,71.12,98.796,37.697,0.0355,0.5269,5.6,245.66,1,0.0225,0.009,7.06,69.85,99.0,39.353,0.038,0.1754,3.23,243.29,0,0.0,0.0065,46.37,-98.14,53.951,20.529,0.0275,1.57,4.46,244.52,0,0.0,0.0112,25.96,-10.92,70.044,25.703,0.032,0.0279,5.53,245.58,1,0.0214,0.0099,8.29,64.58,97.784,37.779,0.039,0.0268,2.49,242.55,0,0.0,0.0039,58.65,-150.63,43.218,15.852,0.0165,0.095,2.49,242.55,0,0.0,0.0039,58.65,-150.63,43.218,15.852,0.0165,0.104,5.92,245.98,0,0.0057,0.0239,1.73,92.59,106.248,39.463,0.061,0.0115,5.32,245.38,0,0.0212,0.0091,11.71,49.97,94.414,37.697,0.038,0.3977,2.23,242.28,0,0.0,0.0017,63.07,-169.52,37.969,16.193,0.0085,1.0756,4.62,244.67,1,0.0289,0.0,23.4,83.126,32.55,0.0,0.0,1.34,241.4,0,0.0,0.0,77.73,24.713,8.07,0.0,0.0,0.101,5,5,0.0,4.4
CON3-7,Det,50,4,586.71,198.67,99.93,298.6,0,0.0,0.3134,289.001,278.514,0.5485,0.0,72.76,271.43,3,0.2705,0.071,27.19,38.84,196.226,181.541,0.2415,0.2646,80.89,279.56,3,0.3869,0.0179,19.05,57.14,176.204,147.589,0.0705,0.0267,72.35,271.02,3,0.2664,0.0734,27.6,37.91,199.774,182.445,0.244,0.2349,77.99,276.66,3,0.3064,0.0624,21.96,50.61,216.447,197.037,0.2145,0.0219,81.12,279.79,3,0.2422,0.1143,18.82,57.66,260.08,231.993,0.302,0.0225,87.8,286.47,1,0.1263,0.198,12.14,72.69,247.088,231.567,0.4625,0.0203,76.58,275.25,3,0.3501,0.0292,23.37,47.43,183.563,156.005,0.109,0.0372,99.93,298.6,0,0.0,0.3134,0.0,100.0,289.001,278.514,0.5485,0.0279,70.13,268.8,3,0.2689,0.0693,29.82,32.91,200.756,181.674,0.233,1.0858,72.15,270.82,3,0.27,0.0714,27.8,37.46,195.963,180.991,0.241,0.2213,72.36,271.03,3,0.2712,0.0696,27.59,37.93,198.215,181.993,0.2345,1.7859,68.89,267.56,3,0.2869,0.0514,31.07,30.12,198.54,177.219,0.182,0.0307,69.51,268.18,3,0.2825,0.0579,30.44,31.53,199.043,180.991,0.2035,0.0238,69.95,268.62,3,0.277,0.0595,30.0,32.51,201.103,181.713,0.205,0.1182,69.1,267.77,3,0.2769,0.057,30.85,30.59,199.043,180.991,0.1985,0.1274,69.69,268.36,3,0.3,0.0486,30.27,31.92,197.062,176.426,0.1715,0.0111,68.72,267.39,3,0.2885,0.0528,31.23,29.74,197.351,175.785,0.183,0.3517,68.27,266.94,3,0.2814,0.0521,31.68,28.73,196.996,175.566,0.1805,1.0436,55.51,254.18,3,0.3077,0.0056,44.45,161.487,144.775,0.0225,0.0,53.13,251.8,0,0.0,0.0,46.83,161.094,144.775,0.0,0.0,10.646,3,4,0.0,5.3
CON3-7,SAA,50,5,635.3,238.53,4.54,243.07,0,0.0,0.0193,88.481,38.868,0.053,0.0,4.34,242.87,0,0.0159,0.0054,4.34,84.25,81.448,38.738,0.0235,0.2166,5.99,244.52,1,0.0259,0.0023,-31.99,216.12,91.442,49.343,0.011,0.0201,4.41,242.94,1,0.0165,0.0051,2.83,89.73,81.878,38.738,0.0225,0.2159,4.3,242.83,0,0.0081,0.0122,5.31,80.74,83.208,30.285,0.044,0.0245,4.16,242.69,0,0.0101,0.0103,8.31,69.82,79.25,33.501,0.0315,0.026,4.19,242.72,0,0.0057,0.0139,7.63,72.3,81.144,33.501,0.0435,0.0455,4.61,243.14,1,0.019,0.0038,-1.61,105.83,83.072,37.849,0.0175,0.0297,2.51,241.04,1,0.0253,0.0035,44.74,-62.38,45.064,15.502,0.016,0.0224,3.91,242.44,0,0.0154,0.0055,13.78,49.99,74.547,33.501,0.0225,0.4937,4.24,242.77,0,0.0141,0.0071,6.52,76.35,79.982,33.501,0.0275,0.2321,2.45,240.98,0,0.0,0.003,46.04,-67.13,44.341,15.502,0.015,1.5984,3.44,241.97,0,0.0,0.0081,24.1,12.52,59.123,19.748,0.025,0.0221,3.97,242.5,0,0.0136,0.0071,12.48,54.71,75.934,33.501,0.0275,0.0246,1.9,240.43,0,0.0,0.0026,58.08,-110.82,35.861,9.451,0.0125,0.0801,1.9,240.43,0,0.0,0.0026,58.07,-110.77,35.874,9.451,0.0125,0.0758,4.33,242.86,0,0.0093,0.0113,4.66,83.1,81.164,33.501,0.03,0.0148,3.82,242.35,0,0.0143,0.0059,15.81,42.6,73.522,33.501,0.0255,0.5016,1.71,240.24,0,0.0,0.001,62.36,-126.35,31.342,9.451,0.005,0.8464,3.29,241.82,1,0.0193,0.0,27.55,63.953,30.285,0.0,0.0,1.11,239.64,0,0.0,0.0,75.5,21.835,7.594,0.0,0.0,0.067,5,5,0.0,4.3
CON8-0,Det,50,9,871.84,402.18,219.93,622.11,0,0.0,0.4545,522.17,510.856,0.733,0.0,199.03,601.22,6,0.2426,0.2403,9.5,60.74,442.646,426.479,0.704,0.2149,204.16,606.34,7,0.3206,0.1907,7.17,70.38,435.684,420.268,0.678,0.0187,199.07,601.25,6,0.2412,0.2403,9.49,60.81,446.169,431.288,0.7,0.2066,212.13,614.32,4,0.1806,0.3111,3.54,85.35,485.623,469.567,0.7145,0.0221,206.28,608.46,5,0.1826,0.2967,6.21,74.35,491.829,474.737,0.699,0.0204,205.35,607.53,4,0.1591,0.3107,6.63,72.61,478.974,463.507,0.7125,0.0215,199.45,601.64,6,0.2909,0.2058,9.31,61.53,437.324,421.848,0.69,0.0213,214.45,616.64,2,0.0748,0.4186,2.49,89.71,526.19,517.202,0.7195,0.0287,197.57,599.76,6,0.2516,0.2325,10.17,58.0,445.717,427.618,0.697,0.4732,199.08,601.27,6,0.2416,0.2417,9.48,60.83,445.684,430.928,0.696,0.1701,196.13,598.32,5,0.2174,0.2285,10.82,55.29,450.236,432.948,0.6865,1.4736,192.24,594.42,5,0.2098,0.2265,12.59,47.97,448.947,433.257,0.686,0.0183,197.34,599.52,6,0.2625,0.2242,10.27,57.56,444.801,425.596,0.6935,0.0232,193.29,595.47,6,0.2426,0.2187,12.11,49.95,446.213,425.596,0.685,0.0767,191.69,593.88,5,0.2149,0.2242,12.84,46.95,450.99,433.913,0.682,0.0606,198.3,600.48,6,0.2689,0.2203,9.83,59.36,443.772,425.249,0.6965,0.0106,196.8,598.99,6,0.2514,0.231,10.52,56.55,444.747,425.858,0.7005,0.2816,190.78,592.96,5,0.2066,0.2254,13.25,45.24,448.561,431.301,0.69,0.4917,166.7,568.88,8,0.3568,0.0977,24.2,415.559,395.838,0.5295,0.0,148.51,550.69,0,0.0,0.0,32.48,414.22,393.569,0.0,0.0,0.08,3,9,0.0,3.5
CON8-0,SAA,50,15,1164.19,641.42,13.75,655.17,0,0.0,0.0213,195.883,94.329,0.119,0.0,13.51,654.93,1,0.0074,0.015,1.74,92.29,188.215,90.587,0.1125,0.174,13.8,655.22,1,0.0083,0.0146,-0.41,101.83,191.406,94.329,0.1125,0.017,13.51,654.93,1,0.0074,0.015,1.74,92.29,188.215,90.587,0.1125,0.1739,13.53,654.94,0,0.0041,0.0177,1.62,92.8,190.498,94.329,0.116,0.0246,13.39,654.81,0,0.004,0.0177,2.6,88.48,188.339,89.957,0.1145,0.0219,13.5,654.92,0,0.0028,0.0187,1.78,92.12,190.432,90.801,0.117,0.0227,13.41,654.83,1,0.0067,0.0155,2.47,89.03,186.42,90.587,0.1135,0.0195,9.81,651.23,2,0.0249,0.0098,28.62,-26.97,130.214,67.587,0.086,0.0203,13.4,654.82,1,0.0072,0.0151,2.54,88.73,186.782,90.587,0.1135,0.2866,13.41,654.83,1,0.0066,0.0156,2.48,88.98,186.676,90.774,0.1135,0.1352,9.75,651.17,0,0.0002,0.0102,29.07,-28.96,132.083,65.061,0.0895,1.1091,11.44,652.86,0,0.0,0.0129,16.8,25.44,156.493,72.34,0.091,0.0155,13.38,654.8,1,0.0064,0.0157,2.68,88.1,186.436,90.587,0.1135,0.0207,9.35,650.77,0,0.0,0.0083,31.99,-41.92,120.986,64.591,0.081,0.0571,9.32,650.74,0,0.0002,0.0083,32.22,-42.94,119.907,64.702,0.083,0.0431,13.75,655.17,0,0.0,0.0213,0.0,100.0,195.883,94.329,0.119,0.0091,13.25,654.67,1,0.0061,0.0159,3.63,83.89,184.788,90.6,0.112,0.2857,8.99,650.4,0,0.0,0.008,34.64,-53.72,116.181,65.775,0.08,0.3944,10.65,652.07,2,0.0213,0.0,22.54,151.186,71.394,0.0,0.0,4.29,645.71,0,0.0,0.0,68.79,66.055,33.778,0.0,0.0,0.071,15,15,0.0,2.7
CON8-1,Det,50,9,740.93,389.09,213.1,602.19,0,0.0,0.4473,498.649,493.411,0.7325,0.0,194.35,583.44,5,0.2216,0.2601,8.8,64.73,434.894,416.774,0.7065,0.2319,195.99,585.08,6,0.2646,0.2327,8.03,67.81,425.938,411.211,0.691,0.0204,193.82,582.91,5,0.2307,0.2537,9.05,63.73,432.201,415.489,0.7,0.2278,204.34,593.43,4,0.1871,0.3069,4.11,83.52,451.211,436.235,0.709,0.0255,201.63,590.72,4,0.149,0.3225,5.38,78.42,487.199,471.526,0.709,0.0247,198.36,587.45,4,0.1614,0.3095,6.92,72.26,465.011,448.587,0.7095,0.0248,194.86,583.95,5,0.2441,0.2461,8.56,65.69,427.995,413.785,0.6965,0.0254,204.71,593.8,2,0.082,0.3999,3.94,84.21,506.855,498.78,0.725,0.0346,193.72,582.82,5,0.2216,0.2604,9.09,63.55,440.271,422.29,0.7035,0.5393,193.46,582.55,5,0.2304,0.2542,9.22,63.04,432.024,415.443,0.703,0.2024,186.18,575.27,4,0.1748,0.248,12.63,49.35,435.963,417.115,0.6895,1.5766,185.84,574.93,4,0.165,0.2529,12.79,48.71,437.331,420.119,0.6945,0.0212,193.8,582.9,5,0.2228,0.2597,9.05,63.7,440.443,422.318,0.704,0.0409,187.87,576.96,4,0.1808,0.2534,11.84,52.53,441.958,425.13,0.6965,0.0917,185.07,574.17,4,0.1607,0.2526,13.15,47.27,441.911,421.965,0.6945,0.0652,194.48,583.58,5,0.2185,0.2636,8.74,64.97,439.92,422.29,0.704,0.0112,192.49,581.59,5,0.2148,0.2634,9.67,61.23,436.387,416.413,0.7045,0.2989,184.32,573.41,4,0.1687,0.2475,13.51,45.85,436.217,417.921,0.691,0.5094,159.95,549.04,7,0.3336,0.1137,24.94,398.017,381.529,0.5325,0.0,143.61,532.7,0,0.0,0.0,32.61,392.642,373.882,0.0,0.0,0.108,5,9,0.0,3.8
CON8-1,SAA,50,14,963.63,586.36,20.47,606.84,0,0.0,0.0344,285.509,135.827,0.145,0.0,19.92,606.28,2,0.0168,0.0205,2.7,88.18,265.081,141.329,0.121,0.1853,21.1,607.46,2,0.021,0.0186,-3.04,113.32,270.515,146.57,0.116,0.0175,19.92,606.28,2,0.0168,0.0205,2.7,88.18,265.081,141.329,0.121,0.1794,19.94,606.3,1,0.0082,0.027,2.6,88.62,274.353,135.761,0.132,0.0233,20.36,606.72,1,0.009,0.0272,0.57,97.51,276.602,135.014,0.128,0.0229,19.93,606.29,1,0.0096,0.026,2.66,88.34,272.099,134.98,0.13,0.0232,19.87,606.23,2,0.0165,0.0206,2.96,87.04,264.153,141.329,0.1225,0.0192,13.41,599.77,4,0.0361,0.0145,34.5,-51.03,181.083,87.697,0.099,0.022,19.81,606.17,2,0.0164,0.0208,3.24,85.8,263.692,142.689,0.122,0.299,19.85,606.21,2,0.0162,0.0209,3.06,86.59,264.251,140.843,0.1225,0.1426,13.44,599.8,0,0.0002,0.0136,34.37,-50.45,178.644,91.821,0.0955,1.1846,13.73,600.09,0,0.0,0.0092,32.95,-44.26,158.647,83.732,0.073,0.0153,19.59,605.95,2,0.0155,0.0211,4.33,81.05,261.423,142.412,0.124,0.0206,12.34,598.7,0,0.0,0.0092,39.72,-73.87,157.159,73.9,0.0755,0.0585,11.91,598.27,0,0.0003,0.0097,41.84,-83.17,153.895,72.22,0.077,0.0446,20.2,606.56,1,0.0098,0.0266,1.34,94.15,271.292,137.565,0.1315,0.0091,19.49,605.85,1,0.0129,0.0229,4.82,78.9,263.897,135.34,0.125,0.2965,11.63,597.99,0,0.0,0.0098,43.21,-89.14,150.576,76.068,0.077,0.4239,15.8,602.16,3,0.0341,0.0003,22.84,219.096,103.48,0.0045,0.0,5.33,591.7,0,0.0,0.0,73.95,79.28,35.097,0.0,0.0,0.072,14,14,0.0,2.8
CON3-9,Det,50,4,590.64,199.06,51.83,250.89,0,0.0,0.1965,245.102,226.951,0.378,0.0,39.69,238.76,3,0.1458,0.0589,23.41,41.46,180.985,151.316,0.2,0.2474,47.19,246.26,3,0.2424,0.0109,8.94,77.64,153.521,135.775,0.043,0.0237,39.93,239.0,3,0.1635,0.0456,22.95,42.61,179.132,150.016,0.1635,0.2388,49.57,248.64,2,0.0766,0.1383,4.34,89.14,234.836,208.001,0.335,0.0222,41.28,240.34,2,0.1485,0.0641,20.36,49.1,199.526,168.509,0.201,0.0236,46.41,245.47,2,0.0874,0.1125,10.45,73.87,221.292,205.059,0.289,0.0243,41.17,240.23,3,0.202,0.022,20.56,48.59,158.154,135.775,0.0845,0.0285,44.14,243.2,2,0.151,0.1105,14.83,62.91,235.186,199.52,0.277,0.0252,37.89,236.96,3,0.1755,0.0341,26.88,32.78,161.615,135.425,0.1275,0.716,39.03,238.09,3,0.1649,0.0444,24.69,38.26,168.951,142.637,0.1575,0.2196,38.02,237.08,2,0.124,0.0384,26.65,33.37,167.445,145.004,0.1435,1.6247,34.34,233.41,2,0.0745,0.0374,33.73,15.65,172.631,136.694,0.132,0.0307,37.87,236.93,3,0.1746,0.0348,26.93,32.67,159.934,134.452,0.128,0.0266,36.13,235.19,1,0.0735,0.0461,30.29,24.25,190.61,154.505,0.1545,0.096,31.34,230.41,2,0.0678,0.0293,39.52,1.17,159.792,135.425,0.1045,0.1008,38.41,237.47,3,0.1751,0.0358,25.89,35.27,164.334,135.775,0.1295,0.0111,37.65,236.71,3,0.1698,0.037,27.36,31.58,168.799,143.482,0.1365,0.4175,31.28,230.35,2,0.0576,0.0314,39.64,0.88,161.974,139.186,0.1145,1.0745,31.1,230.16,3,0.1965,0.0,39.99,136.846,127.171,0.0,0.0,20.85,219.91,0,0.0,0.0,59.77,120.556,105.067,0.0,0.0,0.074,3,4,0.0,4.7
CON3-9,SAA,50,5,653.43,240.34,6.59,246.93,0,0.0,0.0325,107.944,42.869,0.081,0.0,6.59,246.93,1,0.0332,0.0044,0.09,99.64,99.569,59.819,0.02,0.2458,8.35,248.69,2,0.0444,0.0017,-26.63,211.24,108.81,68.995,0.0085,0.0243,6.59,246.93,1,0.0332,0.0044,0.09,99.64,99.569,59.819,0.02,0.2585,6.03,246.37,1,0.0165,0.0168,8.56,64.24,98.399,46.772,0.0555,0.0173,6.03,246.37,1,0.022,0.0127,8.59,64.11,94.916,42.869,0.0415,0.0195,5.96,246.31,1,0.0178,0.0154,9.55,60.1,97.367,39.577,0.0505,0.0188,6.43,246.77,1,0.0324,0.0045,2.43,89.84,96.989,59.032,0.0205,0.0251,3.08,243.43,2,0.0518,0.0025,53.2,-122.28,43.294,19.868,0.0105,0.0205,5.74,246.08,1,0.0282,0.0064,12.92,46.02,91.661,39.805,0.028,0.6745,5.97,246.31,1,0.0291,0.0061,9.49,60.34,93.17,40.337,0.0275,0.1815,3.06,243.4,0,0.0,0.0055,53.65,-124.17,48.539,18.802,0.024,1.5772,4.03,244.37,0,0.0,0.0043,38.91,-62.57,49.93,28.13,0.0135,0.0259,5.66,246.0,1,0.0266,0.0073,14.17,40.8,90.761,39.644,0.0315,0.0306,2.3,242.65,0,0.0,0.0027,65.04,-171.71,36.875,16.443,0.0125,0.0988,2.31,242.66,0,0.0002,0.0027,64.9,-171.14,37.055,16.443,0.0125,0.0913,6.0,246.34,1,0.0208,0.0134,8.97,62.54,95.923,42.869,0.0425,0.0119,5.61,245.95,1,0.0261,0.0075,14.96,37.51,91.162,39.158,0.031,0.4098,2.15,242.49,0,0.0,0.0016,67.39,-181.55,35.122,14.042,0.008,0.998,5.01,245.36,1,0.0325,0.0,23.94,81.689,31.491,0.0,0.0,1.45,241.79,0,0.0,0.0,78.0,24.485,10.53,0.0,0.0,0.067,5,5,0.0,4.5
CON3-8,Det,50,4,523.05,192.3,86.39,278.7,0,0.0,0.2466,229.733,202.17,0.5425,0.0,60.75,253.06,2,0.22,0.0533,29.68,30.71,183.646,153.041,0.188,0.2738,65.02,257.32,2,0.2873,0.0243,24.74,42.24,177.178,146.686,0.0875,0.0261,60.13,252.44,2,0.219,0.052,30.4,29.03,184.756,156.014,0.1815,0.2596,66.33,258.64,2,0.2525,0.0504,23.22,45.8,187.872,153.073,0.174,0.0197,70.78,263.08,2,0.1526,0.1165,18.07,57.81,223.335,201.75,0.345,0.0213,75.15,267.46,1,0.1123,0.144,13.01,69.63,215.711,197.98,0.4755,0.0208,63.16,255.46,2,0.2722,0.028,26.89,37.22,176.541,146.686,0.1005,0.0266,85.01,277.32,1,0.0265,0.2285,1.6,96.27,225.913,215.848,0.53,0.0269,59.52,251.82,2,0.2266,0.0457,31.11,27.38,183.391,153.041,0.1615,1.0515,60.01,252.31,2,0.2137,0.0556,30.54,28.71,184.39,154.229,0.195,0.1989,59.26,251.56,2,0.2124,0.05,31.41,26.68,174.362,152.406,0.177,1.6406,60.03,252.34,2,0.2006,0.0488,30.51,28.77,172.066,153.041,0.1765,0.0303,59.53,251.83,2,0.231,0.0435,31.1,27.4,183.519,153.041,0.152,0.0289,58.36,250.66,2,0.217,0.0439,32.45,24.24,175.065,152.293,0.153,0.1044,57.83,250.13,2,0.1996,0.046,33.06,22.81,176.11,153.041,0.1605,0.1094,59.84,252.14,2,0.2305,0.045,30.74,28.24,182.649,152.438,0.157,0.0128,59.22,251.53,2,0.2243,0.0483,31.45,26.58,183.161,152.406,0.166,0.3687,57.37,249.68,2,0.1959,0.0436,33.59,21.58,173.894,153.041,0.1545,1.0731,49.39,241.69,2,0.2289,0.0177,42.83,172.323,145.569,0.0635,0.0,44.06,236.37,0,0.0,0.0,49.0,161.831,145.569,0.0,0.0,0.078,3,4,0.0,5.1
CON3-8,SAA,50,5,624.76,237.48,7.19,244.66,0,0.0,0.0317,120.897,48.47,0.078,0.0,6.74,244.22,1,0.0265,0.0078,6.19,76.98,111.228,48.47,0.0335,0.2357,8.32,245.8,2,0.0376,0.0029,-15.79,158.71,123.268,73.259,0.0135,0.0225,6.74,244.22,1,0.0265,0.0078,6.19,76.98,111.228,48.47,0.0335,0.2288,6.58,244.05,0,0.0132,0.019,8.49,68.45,110.707,48.47,0.06,0.0177,6.8,244.27,0,0.011,0.0215,5.44,79.77,113.881,48.47,0.065,0.02,6.77,244.25,0,0.0097,0.0222,5.79,78.47,113.045,48.47,0.068,0.0196,6.65,244.12,1,0.0292,0.0056,7.54,71.98,108.634,43.67,0.025,0.0234,3.99,241.46,1,0.0352,0.0081,44.51,-65.5,66.706,23.08,0.034,0.0207,5.89,243.36,1,0.026,0.0068,18.13,32.58,98.11,39.197,0.03,0.4999,6.12,243.6,1,0.0215,0.0111,14.82,44.88,101.871,42.265,0.047,0.1777,3.87,241.34,0,0.0,0.0061,46.23,-71.9,62.365,23.356,0.0265,1.5649,4.54,242.02,0,0.0,0.0059,36.86,-37.04,64.402,32.344,0.0205,0.0273,5.88,243.36,1,0.0248,0.0077,18.17,32.45,97.96,39.21,0.0325,0.0271,3.01,240.49,0,0.0,0.0044,58.14,-116.17,52.405,18.413,0.0215,0.0879,3.02,240.49,0,0.0,0.0045,58.03,-115.78,52.617,22.824,0.0215,0.0837,6.49,243.97,1,0.0134,0.0185,9.73,63.83,107.4,48.47,0.064,0.0115,5.94,243.42,1,0.0265,0.0065,17.38,35.37,98.5,39.466,0.0285,0.3955,2.92,240.4,0,0.0,0.0023,59.36,-120.71,49.024,23.076,0.011,0.9338,5.26,242.73,1,0.0317,0.0,26.89,87.321,34.835,0.0,0.0,1.9,239.37,0,0.0,0.0,73.63,32.766,14.817,0.0,0.0,0.066,5,5,0.0,4.2
