Instance,Plan,N_cust,K_routes,Travel_km,Fixed_cost,none_rec,none_TBC,none_S,none_HO,none_fail,none_cvar95,none_p95,none_pem,none_fit_s,v1_end_rec,v1_end_TBC,v1_end_S,v1_end_HO,v1_end_fail,v1_end_saving,v1_end_gap,v1_end_cvar95,v1_end_p95,v1_end_pem,v1_end_fit_s,v1_myo_rec,v1_myo_TBC,v1_myo_S,v1_myo_HO,v1_myo_fail,v1_myo_saving,v1_myo_gap,v1_myo_cvar95,v1_myo_p95,v1_myo_pem,v1_myo_fit_s,fb_tau_rec,fb_tau_TBC,fb_tau_S,fb_tau_HO,fb_tau_fail,fb_tau_saving,fb_tau_gap,fb_tau_cvar95,fb_tau_p95,fb_tau_pem,fb_tau_fit_s,pi1_rec,pi1_TBC,pi1_S,pi1_HO,pi1_fail,pi1_saving,pi1_gap,pi1_cvar95,pi1_p95,pi1_pem,pi1_fit_s,pi2_rec,pi2_TBC,pi2_S,pi2_HO,pi2_fail,pi2_saving,pi2_gap,pi2_cvar95,pi2_p95,pi2_pem,pi2_fit_s,pi3_rec,pi3_TBC,pi3_S,pi3_HO,pi3_fail,pi3_saving,pi3_gap,pi3_cvar95,pi3_p95,pi3_pem,pi3_fit_s,rollout_rec,rollout_TBC,rollout_S,rollout_HO,rollout_fail,rollout_saving,rollout_gap,rollout_cvar95,rollout_p95,rollout_pem,rollout_fit_s,restock_rec,restock_TBC,restock_S,restock_HO,restock_fail,restock_saving,restock_gap,restock_cvar95,restock_p95,restock_pem,restock_fit_s,thr_k_rec,thr_k_TBC,thr_k_S,thr_k_HO,thr_k_fail,thr_k_saving,thr_k_gap,thr_k_cvar95,thr_k_p95,thr_k_pem,thr_k_fit_s,ro_theta_rec,ro_theta_TBC,ro_theta_S,ro_theta_HO,ro_theta_fail,ro_theta_saving,ro_theta_gap,ro_theta_cvar95,ro_theta_p95,ro_theta_pem,ro_theta_fit_s,thr2_rec,thr2_TBC,thr2_S,thr2_HO,thr2_fail,thr2_saving,thr2_gap,thr2_cvar95,thr2_p95,thr2_pem,thr2_fit_s,dp3_n_rec,dp3_n_TBC,dp3_n_S,dp3_n_HO,dp3_n_fail,dp3_n_saving,dp3_n_gap,dp3_n_cvar95,dp3_n_p95,dp3_n_pem,dp3_n_fit_s,v2_lsm_rec,v2_lsm_TBC,v2_lsm_S,v2_lsm_HO,v2_lsm_fail,v2_lsm_saving,v2_lsm_gap,v2_lsm_cvar95,v2_lsm_p95,v2_lsm_pem,v2_lsm_fit_s,v2_act_rec,v2_act_TBC,v2_act_S,v2_act_HO,v2_act_fail,v2_act_saving,v2_act_gap,v2_act_cvar95,v2_act_p95,v2_act_pem,v2_act_fit_s,v2_cf_rec,v2_cf_TBC,v2_cf_S,v2_cf_HO,v2_cf_fail,v2_cf_saving,v2_cf_gap,v2_cf_cvar95,v2_cf_p95,v2_cf_pem,v2_cf_fit_s,dp_n_rec,dp_n_TBC,dp_n_S,dp_n_HO,dp_n_fail,dp_n_saving,dp_n_gap,dp_n_cvar95,dp_n_p95,dp_n_pem,dp_n_fit_s,dp_xl_rec,dp_xl_TBC,dp_xl_S,dp_xl_HO,dp_xl_fail,dp_xl_saving,dp_xl_gap,dp_xl_cvar95,dp_xl_p95,dp_xl_pem,dp_xl_fit_s,dp_xl3_rec,dp_xl3_TBC,dp_xl3_S,dp_xl3_HO,dp_xl3_fail,dp_xl3_saving,dp_xl3_gap,dp_xl3_cvar95,dp_xl3_p95,dp_xl3_pem,dp_xl3_fit_s,oracle_rec,oracle_TBC,oracle_S,oracle_HO,oracle_fail,oracle_saving,oracle_cvar95,oracle_p95,oracle_pem,oracle_fit_s,oracle3_rec,oracle3_TBC,oracle3_S,oracle3_HO,oracle3_fail,oracle3_saving,oracle3_cvar95,oracle3_p95,oracle3_pem,oracle3_fit_s,online_us,act_routes,n_routes,solve_s,eval_s
CON3-0,Det,50,4,617.59,201.76,123.96,325.72,0,0.0,0.2548,349.093,279.972,0.5765,0.0,101.25,303.01,2,0.1645,0.1131,18.32,35.86,272.638,230.99,0.4165,0.2632,119.87,321.63,2,0.2734,0.0896,3.3,88.45,279.108,261.451,0.358,0.022,99.84,301.6,2,0.1552,0.117,19.46,31.88,271.789,230.99,0.424,0.2251,104.02,305.78,2,0.1839,0.116,16.08,43.7,285.343,239.355,0.413,0.0199,103.23,304.99,2,0.1795,0.1188,16.72,41.47,297.024,268.57,0.402,0.0213,104.33,306.09,2,0.1224,0.1419,15.83,44.57,292.061,239.355,0.4805,0.0202,109.54,311.3,2,0.2274,0.0929,11.63,59.29,277.078,259.286,0.3655,0.0261,110.57,312.33,1,0.0907,0.1926,10.8,62.2,300.342,271.259,0.5535,0.0253,97.13,298.89,2,0.1693,0.1067,21.64,24.23,271.127,239.542,0.396,1.0282,99.53,301.29,2,0.1571,0.1146,19.7,31.02,273.698,239.355,0.419,0.2017,94.26,296.02,1,0.0554,0.1161,23.96,16.13,289.998,258.748,0.394,1.6505,93.2,294.96,1,0.0793,0.1105,24.81,13.14,277.935,235.713,0.3915,0.0269,96.95,298.71,2,0.1704,0.1056,21.78,23.73,269.068,239.355,0.397,0.0267,93.6,295.36,1,0.0542,0.1201,24.49,14.26,290.946,262.194,0.3995,0.0989,91.14,292.9,1,0.0777,0.1094,26.47,7.32,258.045,233.672,0.396,0.1105,98.63,300.39,2,0.1716,0.1114,20.43,28.47,292.242,245.249,0.3905,0.0118,96.25,298.01,2,0.1712,0.1033,22.35,21.76,264.028,230.99,0.393,0.3727,90.84,292.6,1,0.081,0.1052,26.72,6.46,250.24,230.05,0.3935,0.959,88.55,290.31,2,0.1658,0.089,28.56,250.588,216.376,0.356,0.0,80.02,281.78,0,0.0,0.0,35.44,227.234,214.023,0.0,0.0,0.068,3,4,0.0,4.9
CON3-0,SAA,50,5,700.38,245.04,14.14,259.18,0,0.0,0.038,254.393,106.909,0.0725,0.0,9.43,254.47,1,0.0371,0.0058,33.33,34.56,157.555,76.766,0.0275,0.2389,13.62,258.66,2,0.0622,0.0014,3.71,92.72,175.227,112.709,0.007,0.0217,9.52,254.56,1,0.0381,0.0053,32.68,35.84,157.124,78.173,0.025,0.2265,12.52,257.56,1,0.0167,0.0242,11.46,77.5,221.349,86.377,0.06,0.0164,10.24,255.28,1,0.0279,0.014,27.58,45.86,177.028,93.079,0.0485,0.0183,11.03,256.07,1,0.023,0.0169,21.99,56.83,194.334,92.792,0.061,0.0182,11.23,256.27,2,0.0507,0.0024,20.56,59.63,165.132,91.835,0.012,0.0216,7.23,252.26,3,0.0769,0.0063,48.91,3.99,97.47,38.321,0.026,0.019,9.01,254.05,1,0.034,0.0067,36.3,28.73,156.093,72.394,0.0295,0.5748,9.68,254.72,1,0.0356,0.0073,31.55,38.07,161.467,76.766,0.0315,0.1708,6.53,251.57,0,0.006,0.0042,53.82,-5.66,101.722,41.902,0.0205,1.6046,6.68,251.72,0,0.0,0.0033,52.74,-3.54,87.35,47.485,0.0115,0.0255,9.13,254.17,1,0.0356,0.0062,35.46,30.39,156.947,70.141,0.0275,0.0269,4.64,249.67,0,0.0,0.0042,67.22,-31.98,80.193,27.205,0.02,0.0884,4.64,249.67,0,0.0,0.0042,67.22,-31.98,80.193,27.205,0.02,0.0919,10.49,255.53,1,0.0312,0.0122,25.8,49.34,176.357,78.769,0.049,0.0111,8.6,253.63,1,0.0366,0.0045,39.23,22.99,146.956,70.884,0.0205,0.3718,3.96,248.99,0,0.0,0.0022,72.03,-41.42,65.468,26.547,0.0105,0.9296,6.94,251.98,1,0.038,0.0,50.94,123.771,46.462,0.0,0.0,2.33,247.37,0,0.0,0.0,83.49,42.345,16.518,0.0,0.0,0.06,5,5,0.0,4.3
CON3-2,Det,50,4,523.46,192.35,134.86,327.2,0,0.0,0.3103,396.316,392.284,0.5395,0.0,86.18,278.52,3,0.2554,0.094,36.1,27.11,280.16,216.062,0.3175,0.2475,102.3,294.65,3,0.4074,0.0566,24.14,51.26,235.095,214.618,0.218,0.0202,84.91,277.25,3,0.2501,0.0935,37.04,25.21,280.422,214.668,0.3165,0.2327,91.93,284.28,3,0.2721,0.0994,31.83,35.73,303.962,248.698,0.327,0.0169,110.59,302.94,3,0.2014,0.157,17.99,63.67,396.316,392.284,0.344,0.0179,103.04,295.39,2,0.1956,0.1422,23.59,52.37,332.659,318.996,0.3905,0.0176,98.87,291.22,3,0.3863,0.0585,26.69,46.11,236.569,214.618,0.224,0.021,132.71,325.06,1,0.0274,0.2943,1.59,96.78,403.948,394.475,0.5285,0.0237,83.66,276.01,3,0.2681,0.08,37.96,23.35,281.138,214.618,0.281,1.4085,86.77,279.12,3,0.2705,0.0881,35.66,28.01,275.128,214.618,0.304,0.1728,85.14,277.49,3,0.2545,0.0912,36.86,25.57,280.621,215.806,0.3105,1.5557,85.55,277.9,3,0.2745,0.0742,36.56,26.18,280.966,213.49,0.2615,0.0251,83.96,276.3,3,0.2697,0.0796,37.75,23.79,283.408,214.859,0.278,0.0263,83.77,276.11,3,0.2662,0.08,37.89,23.5,283.408,214.859,0.2795,0.1057,83.24,275.59,3,0.2596,0.079,38.27,22.72,283.408,214.859,0.277,0.1065,84.67,277.02,3,0.2829,0.0754,37.22,24.85,278.561,214.618,0.262,0.0103,83.31,275.65,3,0.2744,0.0774,38.23,22.82,272.304,213.49,0.271,0.3091,82.99,275.33,3,0.2676,0.0756,38.46,22.34,272.695,214.618,0.2655,1.0113,68.07,260.42,3,0.2569,0.0534,49.53,226.788,212.635,0.208,0.0,65.0,257.35,0,0.0,0.0,51.8,226.788,212.635,0.0,0.0,0.066,3,4,0.0,5.1
CON3-2,SAA,50,5,570.07,232.01,7.99,240.0,0,0.0,0.0236,151.379,62.847,0.0575,0.0,6.2,238.21,1,0.0284,0.0025,22.41,54.57,106.813,44.153,0.012,0.2504,8.76,240.77,2,0.0424,0.0011,-9.64,119.55,126.045,73.395,0.0055,0.0232,6.2,238.21,1,0.0284,0.0025,22.41,54.57,106.813,44.153,0.012,0.2269,6.56,238.57,0,0.0121,0.0132,17.86,63.78,122.436,38.264,0.038,0.0168,5.8,237.81,1,0.0208,0.0065,27.39,44.46,104.982,38.264,0.021,0.0181,6.05,238.06,1,0.0154,0.0101,24.32,50.7,113.116,39.503,0.031,0.018,7.38,239.39,1,0.0354,0.0014,7.67,84.44,115.05,45.05,0.0065,0.022,3.26,235.26,2,0.043,0.0026,59.26,-20.16,51.456,21.026,0.0105,0.0187,5.28,237.29,1,0.0232,0.0037,33.93,31.21,95.341,38.326,0.016,0.4896,5.63,237.64,1,0.0262,0.0027,29.56,40.07,98.421,42.528,0.013,0.1703,3.22,235.22,0,0.0,0.0022,59.77,-21.18,49.655,21.026,0.009,1.6256,5.62,237.63,0,0.0,0.0035,29.66,39.86,71.216,39.206,0.01,0.0275,5.32,237.32,1,0.0228,0.004,33.49,32.09,96.03,38.264,0.017,0.0254,2.4,234.4,0,0.0,0.0022,70.02,-41.97,44.206,11.727,0.01,0.0863,2.51,234.52,0,0.0001,0.0025,68.61,-39.11,46.461,11.727,0.01,0.0801,6.11,238.12,1,0.0225,0.0064,23.51,52.33,106.844,38.264,0.0205,0.0109,5.1,237.11,1,0.0229,0.0034,36.14,26.73,92.956,38.264,0.016,0.3847,2.23,234.24,0,0.0,0.0009,72.08,-46.15,39.636,15.531,0.0045,0.9751,4.05,236.06,1,0.0236,0.0,49.32,76.497,31.567,0.0,0.0,1.33,233.34,0,0.0,0.0,83.34,25.455,9.684,0.0,0.0,0.065,5,5,0.0,4.3
CON3-3,Det,50,4,607.67,200.77,154.4,355.17,0,0.0,0.3615,394.02,385.814,0.5735,0.0,80.74,281.51,3,0.3508,0.0425,47.71,19.88,214.718,175.015,0.1535,0.2613,108.12,308.89,3,0.5246,0.006,29.97,49.67,180.79,151.079,0.0235,0.0235,79.8,280.56,3,0.3414,0.0481,48.32,18.85,228.045,193.362,0.1725,0.2463,86.67,287.44,3,0.409,0.0329,43.87,26.33,251.697,210.809,0.12,0.0191,97.36,298.13,3,0.368,0.0795,36.94,37.96,302.444,250.982,0.261,0.0196,82.58,283.34,3,0.3501,0.0466,46.52,21.88,236.281,210.809,0.167,0.0187,97.55,298.32,3,0.4769,0.0079,36.82,38.17,182.681,151.079,0.0305,0.0228,143.9,344.67,1,0.0644,0.3185,6.8,88.58,408.042,395.871,0.526,0.0255,77.29,278.05,3,0.3689,0.0294,49.94,16.12,223.702,189.2,0.109,1.2695,79.67,280.44,3,0.3461,0.0429,48.4,18.72,216.564,179.122,0.1555,0.2001,78.52,279.28,3,0.3522,0.027,49.15,17.46,209.94,171.082,0.1,1.4665,74.9,275.67,3,0.3207,0.0269,51.49,13.53,221.855,180.573,0.1015,0.0322,76.99,277.75,3,0.3726,0.0265,50.14,15.8,219.651,171.999,0.098,0.0287,76.04,276.81,3,0.3536,0.0277,50.75,14.77,220.147,175.911,0.102,0.1084,73.96,274.72,3,0.3126,0.0309,52.1,12.5,225.426,185.84,0.1165,0.1176,77.46,278.23,3,0.3811,0.0238,49.83,16.31,218.926,164.823,0.0885,0.0113,76.44,277.21,3,0.3709,0.0259,50.49,15.2,219.228,178.743,0.0965,0.345,73.45,274.21,3,0.3056,0.0301,52.43,11.95,221.288,184.326,0.114,1.0732,62.46,263.23,3,0.3583,0.0032,59.55,162.807,142.799,0.0125,0.0,53.88,254.65,0,0.0,0.0,65.1,162.725,142.799,0.0,0.0,0.072,3,4,0.0,5.1
CON3-3,SAA,50,5,713.82,246.38,17.52,263.9,0,0.0,0.0568,259.53,130.99,0.106,0.0,12.99,259.37,2,0.0494,0.0133,25.83,46.04,176.987,113.964,0.054,0.2549,21.73,268.11,4,0.1005,0.0026,-24.06,150.26,203.694,166.345,0.0125,0.0226,12.99,259.37,2,0.0494,0.0133,25.83,46.04,176.987,113.964,0.054,0.2488,14.39,260.77,2,0.0399,0.0244,17.86,62.69,197.533,129.726,0.0855,0.0184,12.64,259.02,2,0.0476,0.016,27.84,41.83,178.195,99.758,0.0545,0.0199,12.21,258.59,2,0.0487,0.0125,30.32,36.65,168.397,107.158,0.052,0.0195,15.42,261.8,3,0.0703,0.0057,11.97,74.99,184.079,124.42,0.0255,0.0259,6.56,252.94,4,0.0947,0.0065,62.57,-30.73,87.338,41.195,0.021,0.0207,11.8,258.18,2,0.049,0.0124,32.62,31.84,163.833,99.746,0.05,0.5446,12.38,258.77,2,0.0467,0.0146,29.3,38.77,169.441,105.967,0.059,0.1887,6.14,252.52,0,0.0,0.003,64.97,-35.76,73.641,42.674,0.0135,1.8955,6.54,252.92,0,0.0,0.0057,62.65,-30.9,85.12,45.075,0.018,0.0252,11.79,258.18,2,0.0484,0.0127,32.67,31.74,163.444,99.567,0.0515,0.0278,5.35,251.74,0,0.0,0.0064,69.44,-45.08,78.633,36.123,0.0225,0.0943,5.32,251.7,0,0.0,0.0062,69.62,-45.46,77.956,36.123,0.023,0.1004,12.55,258.93,3,0.0562,0.0101,28.37,40.73,169.13,105.47,0.0415,0.0123,11.64,258.02,2,0.0527,0.0099,33.54,29.91,157.771,99.719,0.042,0.4074,4.97,251.35,0,0.0,0.0039,71.64,-49.69,70.789,35.596,0.014,1.0142,9.13,255.52,2,0.0568,0.0,47.86,134.593,66.626,0.0,0.0,2.82,249.2,0,0.0,0.0,83.92,42.968,21.712,0.0,0.0,0.07,5,5,0.0,4.7
CON3-1,Det,50,4,554.47,195.45,149.27,344.72,0,0.0,0.3448,395.851,379.271,0.5775,0.0,95.88,291.33,3,0.2925,0.0905,35.77,25.88,271.502,247.317,0.314,0.2968,111.43,306.88,3,0.4337,0.0519,25.35,47.47,263.391,247.317,0.192,0.0275,95.23,290.68,3,0.2991,0.0825,36.2,24.98,269.387,246.939,0.295,0.2751,99.47,294.92,3,0.3661,0.0644,33.36,30.87,270.105,245.94,0.235,0.0189,107.88,303.33,3,0.264,0.1245,27.73,42.54,386.929,331.212,0.3315,0.0197,98.87,294.31,3,0.2931,0.0926,33.77,30.03,331.816,249.104,0.2985,0.0292,104.69,300.14,3,0.4025,0.0532,29.86,38.12,263.453,247.317,0.1965,0.0222,145.8,341.24,1,0.0454,0.3137,2.33,95.18,411.718,395.946,0.547,0.0259,92.71,288.15,3,0.3142,0.0723,37.89,21.47,274.202,245.541,0.257,1.1214,95.87,291.31,3,0.2829,0.0941,35.78,25.86,274.774,247.317,0.326,0.1883,94.13,289.58,3,0.287,0.077,36.94,23.45,269.114,246.919,0.2795,1.7124,91.39,286.83,3,0.2898,0.0678,38.78,19.64,270.627,245.94,0.245,0.0295,92.85,288.29,3,0.3155,0.072,37.8,21.67,274.202,245.541,0.2555,0.0299,91.36,286.81,3,0.2724,0.078,38.79,19.61,276.783,245.541,0.274,0.1089,91.22,286.67,3,0.2796,0.0737,38.89,19.42,275.92,245.541,0.262,0.1132,92.93,288.37,3,0.323,0.0688,37.74,21.78,268.047,245.94,0.249,0.0129,92.02,287.47,3,0.3163,0.0699,38.35,20.53,267.387,245.94,0.252,0.3307,90.16,285.6,3,0.2769,0.0707,39.6,17.94,268.365,245.561,0.2555,0.9688,77.24,272.69,3,0.2958,0.049,48.26,259.968,240.269,0.181,0.0,72.27,267.72,0,0.0,0.0,51.58,259.968,240.269,0.0,0.0,0.098,4,4,0.0,5.1
CON3-1,SAA,50,5,616.97,236.7,12.44,249.13,0,0.0,0.0376,222.507,76.708,0.0725,0.0,8.48,245.17,1,0.0353,0.0064,31.84,35.87,142.732,65.932,0.0285,0.2424,11.92,248.62,3,0.0584,0.0008,4.12,91.7,161.822,101.601,0.004,0.0257,8.43,245.12,1,0.0362,0.0057,32.24,35.08,141.938,65.326,0.025,0.272,10.63,247.33,1,0.0237,0.0197,14.53,70.74,180.769,76.708,0.061,0.0179,9.52,246.22,1,0.0232,0.0169,23.41,52.86,168.42,62.597,0.048,0.0192,10.23,246.92,1,0.0197,0.0197,17.77,64.21,180.88,76.708,0.0625,0.0204,10.03,246.73,2,0.0481,0.0021,19.33,61.07,150.737,82.573,0.01,0.0236,4.77,241.47,3,0.0672,0.0036,61.64,-24.15,69.155,29.252,0.0135,0.0306,8.21,244.91,1,0.0369,0.0054,33.97,31.6,140.388,60.843,0.025,0.6668,8.3,245.0,1,0.0342,0.007,33.24,33.06,141.983,62.392,0.03,0.2012,4.9,241.6,0,0.0,0.0031,60.59,-22.02,67.893,29.184,0.011,1.7132,6.37,243.07,0,0.0,0.0028,48.78,1.76,84.932,47.954,0.0095,0.0311,8.11,244.81,1,0.0358,0.0058,34.75,30.01,138.857,60.843,0.026,0.032,3.71,240.4,0,0.0,0.0025,70.2,-41.39,61.394,24.872,0.01,0.1133,3.78,240.48,0,0.0007,0.0024,69.62,-40.21,62.847,24.872,0.0095,0.1288,9.52,246.21,1,0.0352,0.0098,23.48,52.72,155.62,67.211,0.0385,0.012,7.66,244.36,1,0.0349,0.0052,38.42,22.63,132.427,55.921,0.0245,0.4135,3.61,240.31,0,0.0,0.002,70.99,-42.97,59.588,24.062,0.0075,1.3529,6.26,242.96,1,0.0376,0.0,49.65,111.21,36.208,0.0,0.0,2.19,238.89,0,0.0,0.0,82.35,40.185,16.018,0.0,0.0,0.142,5,5,0.0,5.1
CON3-6,Det,50,4,515.59,191.56,141.47,333.02,0,0.0,0.2883,384.574,370.804,0.5715,0.0,87.24,278.8,3,0.2802,0.0584,38.33,25.67,273.908,266.928,0.2165,0.2467,99.58,291.14,3,0.387,0.0336,29.61,42.58,268.43,267.773,0.1335,0.022,86.33,277.89,3,0.2508,0.0694,38.98,24.42,277.756,266.543,0.2485,0.24,91.07,282.63,2,0.294,0.0643,35.62,30.92,300.758,266.543,0.209,0.0188,109.76,301.32,2,0.1991,0.1328,22.41,56.54,361.531,319.172,0.3685,0.0197,129.62,321.18,1,0.0541,0.2416,8.38,83.76,384.574,370.804,0.504,0.0203,94.65,286.21,3,0.3632,0.0353,33.1,35.82,268.442,266.928,0.139,0.0236,136.51,328.07,1,0.0464,0.2593,3.5,93.21,390.287,376.373,0.56,0.0253,84.02,275.57,3,0.2757,0.0529,40.61,21.25,273.453,265.99,0.1995,1.0485,86.13,277.68,3,0.2781,0.0568,39.12,24.14,275.381,266.543,0.206,0.1902,85.7,277.26,2,0.23,0.064,39.42,23.56,283.438,266.375,0.229,1.9407,84.3,275.86,2,0.2255,0.0599,40.41,21.64,281.317,266.255,0.2185,0.0339,83.96,275.52,3,0.2751,0.0532,40.65,21.18,274.319,265.99,0.2,0.027,83.17,274.73,2,0.234,0.0574,41.21,20.09,290.666,255.971,0.202,0.1039,82.37,273.93,2,0.2349,0.0558,41.77,18.99,283.038,257.305,0.2015,0.1127,84.33,275.89,3,0.282,0.0511,40.39,21.68,275.103,265.99,0.19,0.0112,83.49,275.05,3,0.276,0.0519,40.98,20.53,273.256,265.443,0.1945,0.3464,81.19,272.75,2,0.2316,0.0526,42.61,17.37,279.438,254.44,0.192,0.9939,68.51,260.07,3,0.2578,0.0305,51.57,264.992,260.521,0.122,0.0,64.01,255.57,0,0.0,0.0,54.75,256.952,242.924,0.0,0.0,0.069,4,4,0.0,5.2
CON3-6,SAA,50,5,562.39,231.24,8.24,239.48,0,0.0,0.0245,148.711,61.324,0.064,0.0,5.96,237.19,1,0.0224,0.0055,27.71,44.1,102.802,45.456,0.0245,0.2226,9.34,240.58,2,0.042,0.0015,-13.4,127.04,117.979,76.631,0.0075,0.0206,5.91,237.15,1,0.0242,0.0044,28.25,43.02,99.504,44.337,0.0205,0.2199,6.73,237.97,1,0.0144,0.0122,18.26,63.16,122.195,35.076,0.0395,0.018,6.17,237.4,1,0.0176,0.0091,25.16,49.25,108.609,37.211,0.0305,0.0188,7.35,238.59,0,0.0109,0.0159,10.77,78.28,131.39,54.775,0.0495,0.0184,7.1,238.34,1,0.0321,0.0022,13.86,72.05,105.587,50.7,0.0105,0.0216,4.29,235.52,2,0.0516,0.0033,47.98,3.21,57.23,21.019,0.015,0.0189,5.35,236.59,1,0.0238,0.0038,35.07,29.25,93.425,37.211,0.017,0.525,5.66,236.9,1,0.0213,0.0057,31.29,36.87,99.195,42.96,0.026,0.1669,4.03,235.27,0,0.0095,0.0022,51.04,-2.96,69.658,25.674,0.011,1.6727,4.88,236.12,0,0.0,0.0019,40.77,17.75,57.703,36.503,0.007,0.0247,5.36,236.6,1,0.0231,0.0042,34.96,29.48,93.552,37.211,0.019,0.0252,2.72,233.96,0,0.0,0.0026,66.94,-35.05,44.64,15.514,0.0125,0.0909,2.71,233.95,0,0.0005,0.0026,67.1,-35.36,44.387,15.514,0.0125,0.0884,6.59,237.83,1,0.0182,0.0103,19.98,59.69,111.565,54.172,0.037,0.0111,5.23,236.47,1,0.0226,0.0041,36.47,26.42,91.407,37.211,0.0185,0.3762,2.29,233.52,0,0.0,0.0011,72.25,-45.75,38.097,15.514,0.005,0.9025,4.15,235.39,1,0.0245,0.0,49.57,74.304,32.462,0.0,0.0,1.41,232.65,0,0.0,0.0,82.9,25.898,10.588,0.0,0.0,0.06,5,5,0.0,4.2
CON3-7,Det,50,4,586.71,198.67,140.99,339.66,0,0.0,0.3134,407.996,393.582,0.5485,0.0,79.94,278.61,3,0.3275,0.0422,43.3,28.01,224.62,200.777,0.155,0.2487,93.42,292.09,3,0.4493,0.0095,33.74,43.91,188.557,147.589,0.038,0.0243,78.62,277.29,3,0.3099,0.0445,44.24,26.46,234.389,211.11,0.1615,0.2407,85.19,283.86,3,0.3462,0.042,39.58,34.2,241.824,211.11,0.154,0.0197,94.91,293.58,3,0.2838,0.0943,32.68,45.67,324.906,294.988,0.263,0.0235,112.12,310.79,1,0.1437,0.187,20.48,65.96,314.081,297.912,0.4525,0.0212,86.86,285.53,3,0.4184,0.0123,38.39,36.17,191.642,147.589,0.0485,0.0223,140.15,338.82,0,0.0109,0.306,0.6,99.01,408.812,397.746,0.5315,0.0234,74.85,273.52,3,0.3281,0.034,46.91,22.01,237.611,207.891,0.1225,1.143,78.88,277.55,3,0.3031,0.0495,44.05,26.77,234.521,211.11,0.1785,0.1862,78.24,276.92,3,0.3007,0.0485,44.5,26.02,236.485,211.11,0.1735,1.6643,74.5,273.18,3,0.3163,0.0355,47.15,21.61,229.44,204.849,0.1325,0.0278,74.19,272.86,3,0.334,0.0297,47.38,21.23,234.588,203.159,0.11,0.0262,73.99,272.66,3,0.3262,0.0318,47.52,21.0,235.211,203.175,0.1165,0.1047,73.94,272.61,3,0.3282,0.0304,47.56,20.94,234.872,203.531,0.1115,0.1214,74.88,273.55,3,0.3377,0.0294,46.89,22.05,227.512,199.353,0.1095,0.0101,73.59,272.26,3,0.3295,0.0294,47.8,20.53,230.622,199.32,0.1075,0.3192,73.36,272.03,3,0.3223,0.0302,47.97,20.25,228.429,200.966,0.112,0.915,56.18,254.85,3,0.3077,0.0056,60.15,174.929,144.775,0.0225,0.0,53.8,252.47,0,0.0,0.0,61.84,174.537,144.775,0.0,0.0,8.32,4,4,0.0,4.9
CON3-7,SAA,50,5,635.3,238.53,6.55,245.08,0,0.0,0.0193,127.704,56.188,0.053,0.0,4.97,243.5,1,0.0194,0.0038,24.16,51.48,89.969,38.731,0.0175,0.2568,7.32,245.85,1,0.0327,0.0013,-11.79,123.67,104.009,51.492,0.0065,0.028,5.01,243.54,1,0.02,0.0035,23.51,52.78,90.127,38.81,0.0165,0.2534,5.41,243.94,1,0.0219,0.0045,17.34,65.18,89.156,38.731,0.0175,0.0202,5.01,243.54,1,0.0121,0.0088,23.49,52.82,94.571,33.501,0.0275,0.0219,5.32,243.85,0,0.0077,0.0121,18.7,62.44,103.494,33.501,0.0375,0.0216,5.82,244.35,1,0.025,0.0025,11.07,77.76,97.204,46.46,0.0115,0.0263,2.86,241.39,1,0.0304,0.0024,56.29,-13.04,48.458,17.991,0.011,0.0202,4.43,242.96,1,0.0184,0.0037,32.36,35.02,82.383,33.501,0.015,0.6143,4.88,243.41,1,0.0175,0.0049,25.42,48.95,89.884,35.913,0.023,0.2039,2.61,241.14,0,0.0,0.0014,60.19,-20.86,43.365,17.991,0.007,1.5362,4.07,242.6,0,0.0,0.0042,37.84,24.02,64.166,26.022,0.016,0.024,4.45,242.98,1,0.0178,0.0041,32.01,35.72,83.147,33.501,0.0175,0.0304,1.91,240.44,0,0.0,0.0013,70.88,-42.33,35.263,9.451,0.0065,0.1028,1.92,240.45,0,0.0001,0.0013,70.71,-41.98,35.492,9.451,0.0065,0.1248,5.64,244.17,1,0.022,0.0046,13.93,72.02,98.698,40.314,0.0195,0.0129,4.25,242.78,1,0.0185,0.0031,35.18,29.37,80.023,31.369,0.014,0.4304,1.87,240.4,0,0.0,0.0005,71.48,-43.53,33.779,9.451,0.0025,0.9478,3.29,241.82,1,0.0193,0.0,49.8,63.953,30.285,0.0,0.0,1.11,239.64,0,0.0,0.0,83.02,21.835,7.594,0.0,0.0,0.069,5,5,0.0,4.5
CON3-5,Det,50,4,593.84,199.38,184.78,384.17,0,0.0,0.3596,421.132,417.905,0.5915,0.0,122.27,321.65,3,0.3386,0.1059,33.83,31.54,354.194,347.072,0.327,0.3079,127.72,327.11,3,0.429,0.0801,30.88,37.51,347.072,347.072,0.255,0.0201,122.21,321.59,3,0.3578,0.0975,33.86,31.47,350.951,346.562,0.307,0.2256,132.55,331.94,3,0.4261,0.0921,28.27,42.8,350.192,346.562,0.286,0.0234,129.83,329.21,3,0.3628,0.1119,29.74,39.82,360.632,346.562,0.3315,0.0245,165.73,365.11,1,0.2009,0.2348,10.31,79.13,348.702,347.072,0.5535,0.0245,127.1,326.49,3,0.4245,0.0809,31.21,36.83,347.072,347.072,0.257,0.0325,180.55,379.93,1,0.0683,0.3245,2.29,95.37,435.494,426.138,0.5515,0.0401,122.53,321.91,3,0.334,0.1082,33.69,31.82,350.541,346.562,0.333,1.1529,122.08,321.47,3,0.349,0.1011,33.93,31.33,352.972,347.072,0.315,0.2723,121.64,321.02,3,0.3466,0.0996,34.17,30.85,353.611,347.072,0.3085,1.6976,121.43,320.81,3,0.3309,0.1,34.29,30.62,350.111,346.562,0.3125,0.0277,121.09,320.47,3,0.3481,0.0995,34.47,30.25,349.992,346.562,0.3105,0.0252,120.91,320.29,3,0.3438,0.1,34.57,30.05,349.992,346.562,0.3115,0.1208,120.5,319.88,3,0.333,0.1003,34.79,29.6,350.875,346.562,0.313,0.1317,122.56,321.94,3,0.348,0.1026,33.68,31.85,351.317,346.562,0.3145,0.01,120.88,320.26,3,0.3511,0.0979,34.58,30.02,349.128,346.562,0.3045,0.3025,120.45,319.84,3,0.3339,0.1004,34.81,29.55,352.449,346.562,0.3105,1.0152,93.47,292.85,3,0.2893,0.0704,49.42,346.461,343.684,0.226,0.0,88.19,287.57,0,0.0,0.0,52.28,346.409,343.684,0.0,0.0,0.084,3,4,0.0,5.3
CON3-5,SAA,50,5,630.37,238.04,7.47,245.51,0,0.0,0.022,142.726,52.941,0.0565,0.0,5.75,243.78,1,0.0236,0.0039,23.11,54.01,102.572,37.653,0.017,0.2805,9.29,247.32,2,0.0437,0.0008,-24.25,148.25,121.345,82.818,0.004,0.0268,5.75,243.78,1,0.0236,0.0039,23.11,54.01,102.572,37.653,0.017,0.2767,5.93,243.97,0,0.014,0.0101,20.63,58.94,110.526,33.812,0.0345,0.0229,5.83,243.87,0,0.0127,0.0108,21.94,56.34,108.703,37.555,0.036,0.0254,6.09,244.13,0,0.0117,0.0116,18.45,63.28,115.182,29.476,0.037,0.0203,6.82,244.85,1,0.0334,0.0011,8.78,82.53,106.612,52.408,0.005,0.0249,3.45,241.49,2,0.0332,0.0044,53.82,-7.1,59.329,19.348,0.018,0.0206,5.03,243.07,1,0.0206,0.0045,32.7,34.92,91.122,36.492,0.0195,0.6399,5.17,243.21,1,0.0207,0.0045,30.82,38.66,94.063,34.547,0.0175,0.1822,3.59,241.63,0,0.005,0.0032,51.94,-3.36,62.253,22.867,0.0145,1.657,4.59,242.63,0,0.0,0.0025,38.52,23.34,60.12,33.441,0.009,0.0339,4.89,242.93,1,0.02,0.0044,34.53,31.3,89.105,35.591,0.0185,0.0319,2.53,240.57,0,0.0,0.0027,66.15,-31.64,46.587,11.351,0.012,0.1061,2.52,240.56,0,0.0,0.0027,66.23,-31.8,46.469,11.351,0.012,0.1057,6.1,244.14,1,0.0252,0.0041,18.38,63.43,101.894,52.394,0.017,0.0127,4.81,242.85,1,0.0211,0.0036,35.62,29.12,87.793,31.67,0.0145,0.4636,2.28,240.32,0,0.0,0.0018,69.48,-38.27,41.907,11.303,0.009,1.3941,3.72,241.76,1,0.022,0.0,50.25,70.567,29.46,0.0,0.0,1.26,239.29,0,0.0,0.0,83.2,24.421,5.838,0.0,0.0,0.079,5,5,0.0,5.1
CON3-4,Det,50,4,599.73,199.97,193.71,393.68,0,0.0,0.38,427.815,425.0,0.6,0.0,103.02,302.99,3,0.4105,0.044,46.82,24.92,291.738,266.768,0.158,0.2543,110.74,310.71,3,0.5241,0.011,42.83,31.31,223.039,149.822,0.0405,0.0216,101.79,301.76,3,0.4253,0.0355,47.45,23.9,281.619,235.757,0.1285,0.2403,105.27,305.24,3,0.4671,0.0254,45.66,26.78,262.942,217.359,0.093,0.0187,123.08,323.05,3,0.4271,0.0714,36.46,41.53,337.948,286.254,0.236,0.0218,148.78,348.75,2,0.2635,0.1565,23.19,62.81,358.43,340.381,0.517,0.021,106.9,306.87,3,0.5021,0.0131,44.81,28.14,223.977,149.822,0.0485,0.0245,189.37,389.34,1,0.0326,0.3592,2.24,96.41,438.174,433.76,0.592,0.0292,99.42,299.4,3,0.4203,0.0353,48.67,21.94,264.997,218.388,0.1305,1.1784,100.53,300.5,3,0.4348,0.0312,48.1,22.86,257.234,209.729,0.116,0.2027,101.46,301.43,3,0.4209,0.0349,47.62,23.63,281.205,235.757,0.126,1.7903,103.17,303.15,3,0.4134,0.0385,46.74,25.05,268.451,218.388,0.1415,0.035,99.45,299.42,3,0.4299,0.0309,48.66,21.97,259.554,217.49,0.115,0.0281,99.46,299.43,3,0.4255,0.0329,48.65,21.98,259.979,217.49,0.1215,0.1206,98.55,298.53,3,0.4108,0.0318,49.12,21.22,259.437,217.49,0.117,0.1668,100.1,300.07,3,0.4224,0.035,48.33,22.5,267.043,218.251,0.128,0.011,98.93,298.9,3,0.4175,0.035,48.93,21.54,261.681,216.544,0.128,0.3207,98.27,298.25,3,0.3986,0.0357,49.27,20.99,262.292,217.49,0.1315,1.1725,72.92,272.89,3,0.375,0.005,62.36,180.858,149.507,0.0175,0.0,67.37,267.34,0,0.0,0.0,65.22,180.378,149.507,0.0,0.0,0.081,3,4,0.0,5.4
CON3-4,SAA,50,5,650.56,240.06,8.66,248.72,0,0.0,0.0289,156.514,57.14,0.065,0.0,7.12,247.17,1,0.0274,0.0064,17.84,61.81,120.274,54.315,0.029,0.3379,10.19,250.25,2,0.0462,0.0026,-17.67,137.83,141.517,84.4,0.013,0.0237,7.03,247.09,1,0.0277,0.006,18.79,59.76,119.154,54.315,0.0275,0.2468,7.18,247.24,0,0.0142,0.0161,17.04,63.52,128.501,57.14,0.055,0.0203,7.11,247.16,0,0.0145,0.0158,17.95,61.58,129.653,54.447,0.047,0.0223,7.55,247.61,0,0.0107,0.0192,12.82,72.55,136.844,57.14,0.0555,0.0233,8.06,248.11,1,0.0344,0.0045,6.97,85.07,127.968,60.825,0.021,0.0274,3.66,243.72,2,0.0506,0.0041,57.69,-23.52,57.167,22.541,0.02,0.0269,6.46,246.52,1,0.0266,0.0069,25.38,45.66,112.836,54.315,0.0305,0.5843,6.43,246.48,1,0.026,0.0068,25.77,44.82,112.418,54.315,0.0305,0.2218,3.82,243.88,0,0.0,0.0057,55.83,-19.54,63.898,22.541,0.026,1.9474,5.69,245.75,0,0.0,0.0111,34.26,26.66,91.298,25.703,0.0315,0.0281,6.39,246.45,1,0.0264,0.0068,26.22,43.85,110.5,54.447,0.0285,0.0279,2.85,242.9,0,0.0,0.0038,67.12,-43.72,50.267,15.934,0.016,0.1131,2.85,242.9,0,0.0,0.0038,67.12,-43.72,50.267,15.934,0.016,0.1377,7.7,247.76,1,0.0243,0.0119,11.07,76.3,129.18,57.053,0.04,0.0114,6.11,246.16,1,0.027,0.0056,29.48,36.89,107.529,41.486,0.0255,0.4622,2.3,242.36,0,0.0,0.001,73.42,-57.19,38.753,16.193,0.005,1.064,4.62,244.67,1,0.0289,0.0,46.71,83.126,32.55,0.0,0.0,1.34,241.4,0,0.0,0.0,84.5,24.713,8.07,0.0,0.0,0.089,5,5,0.0,5.2
CON8-0,Det,50,9,871.84,402.18,317.4,719.59,0,0.0,0.4545,751.912,735.416,0.733,0.0,240.34,642.52,7,0.3442,0.175,24.28,40.47,545.353,515.726,0.6665,0.2723,254.12,656.31,8,0.4481,0.1375,19.94,51.12,524.774,483.012,0.623,0.0231,240.32,642.51,7,0.3424,0.1748,24.28,40.46,552.34,518.672,0.6655,0.2677,262.84,665.02,7,0.3924,0.1863,17.19,57.85,552.975,519.48,0.673,0.0255,263.26,665.44,6,0.2991,0.2285,17.06,58.18,660.583,620.868,0.6625,0.0253,267.12,669.3,4,0.2036,0.2816,15.84,61.16,633.807,605.457,0.701,0.0254,244.21,646.4,7,0.4035,0.1481,23.06,43.47,532.834,501.865,0.639,0.0245,303.69,705.87,3,0.0883,0.4116,4.32,89.41,759.762,745.457,0.7175,0.0351,238.27,640.46,7,0.3473,0.1713,24.93,38.88,550.212,516.747,0.658,0.5803,240.85,643.04,7,0.3537,0.1697,24.12,40.87,550.242,517.931,0.66,0.2021,237.44,639.62,6,0.3128,0.172,25.19,38.23,552.69,518.672,0.663,1.7909,235.19,637.38,6,0.3117,0.1683,25.9,36.5,553.486,516.171,0.645,0.0227,238.5,640.69,7,0.3508,0.1698,24.86,39.06,550.451,516.495,0.657,0.0309,232.69,634.88,6,0.3089,0.1717,26.69,34.57,553.312,517.256,0.655,0.0898,231.59,633.77,6,0.3028,0.1699,27.04,33.72,552.897,516.918,0.6525,0.0764,240.78,642.96,7,0.3597,0.1675,24.14,40.81,548.047,515.171,0.6575,0.0114,237.59,639.78,7,0.3578,0.165,25.15,38.35,543.082,511.817,0.653,0.335,231.41,633.59,6,0.2992,0.1686,27.09,33.58,548.603,515.633,0.6505,0.5941,187.94,590.12,8,0.3568,0.0977,40.79,507.186,471.673,0.5295,0.0,169.74,571.93,0,0.0,0.0,46.52,505.843,468.449,0.0,0.0,0.094,6,9,0.0,4.2
CON8-0,SAA,50,15,1164.19,641.42,20.0,661.42,0,0.0,0.0213,284.901,138.926,0.119,0.0,17.82,659.24,1,0.0114,0.0126,10.89,76.7,237.624,133.364,0.1065,0.2108,18.04,659.46,2,0.0166,0.0099,9.79,79.07,228.799,131.175,0.0965,0.02,17.82,659.24,1,0.0114,0.0126,10.89,76.7,237.624,133.364,0.1065,0.2084,18.11,659.53,1,0.0082,0.0147,9.47,79.75,247.101,131.219,0.1095,0.0283,18.22,659.64,2,0.0138,0.012,8.92,80.93,235.818,127.274,0.0985,0.0273,18.19,659.61,1,0.0096,0.0141,9.04,80.66,242.26,138.926,0.108,0.0285,17.94,659.36,1,0.0138,0.0114,10.31,77.94,235.192,131.885,0.102,0.0224,12.6,654.02,3,0.0327,0.0084,37.0,20.86,163.68,89.367,0.0815,0.0254,17.78,659.2,1,0.013,0.0119,11.11,76.24,233.107,131.885,0.103,0.3528,17.83,659.25,1,0.011,0.0129,10.85,76.79,238.206,131.175,0.107,0.1685,13.06,654.48,0,0.0035,0.0069,34.69,25.81,162.082,91.753,0.074,1.381,14.29,655.71,0,0.0,0.0092,28.53,38.97,184.566,96.677,0.078,0.0178,17.68,659.1,1,0.0125,0.012,11.58,75.24,233.2,132.098,0.1035,0.0238,12.13,653.55,0,0.0009,0.006,39.33,15.88,148.386,83.845,0.066,0.0671,11.98,653.4,0,0.0008,0.006,40.08,14.26,146.935,83.885,0.0665,0.0519,18.57,659.99,1,0.0101,0.0145,7.14,84.72,247.859,138.965,0.1045,0.011,17.3,658.72,1,0.0124,0.0118,13.52,71.08,227.03,129.533,0.1025,0.349,11.06,652.48,0,0.0007,0.0061,44.69,4.41,141.921,82.253,0.068,0.4739,10.65,652.07,2,0.0213,0.0,46.75,151.186,71.394,0.0,0.0,4.29,645.71,0,0.0,0.0,78.55,66.055,33.778,0.0,0.0,0.083,14,15,0.0,3.3
CON8-1,Det,50,9,740.93,389.09,305.12,694.21,0,0.0,0.4473,712.222,704.858,0.7325,0.0,237.74,626.83,6,0.3178,0.2038,22.08,45.86,535.892,502.164,0.6775,0.2867,248.38,637.47,7,0.423,0.1636,18.6,54.41,502.635,477.292,0.6345,0.0248,237.51,626.61,6,0.2934,0.2144,22.16,45.68,549.216,516.847,0.6795,0.3202,256.53,645.62,6,0.3536,0.2163,15.92,60.96,558.723,520.261,0.667,0.0288,261.24,650.34,5,0.2417,0.2658,14.38,64.75,670.741,642.075,0.677,0.0272,254.33,643.42,5,0.2295,0.2673,16.65,59.19,616.148,575.484,0.686,0.0266,241.37,630.47,7,0.3894,0.1716,20.89,48.78,509.553,477.292,0.6455,0.0258,288.56,677.65,3,0.1074,0.3938,5.43,86.69,721.296,711.848,0.719,0.0374,235.66,624.75,6,0.3243,0.1987,22.77,44.19,534.795,499.953,0.6675,0.6388,236.43,625.53,6,0.3069,0.2073,22.51,44.82,541.242,503.502,0.6785,0.2178,229.88,618.97,5,0.2583,0.2029,24.66,39.55,539.887,502.916,0.669,1.7407,229.1,618.19,5,0.2581,0.2024,24.91,38.92,533.345,500.162,0.6685,0.023,235.27,624.37,6,0.3234,0.1984,22.89,43.88,534.239,499.758,0.668,0.0286,230.25,619.35,5,0.2776,0.2013,24.54,39.85,540.411,506.371,0.6655,0.093,226.02,615.12,5,0.2773,0.1906,25.92,36.45,532.15,494.857,0.657,0.0859,236.93,626.02,6,0.3334,0.1951,22.35,45.21,533.885,500.16,0.664,0.0117,234.92,624.01,6,0.3342,0.1919,23.01,43.6,531.223,491.384,0.6635,0.3249,225.38,614.48,5,0.2632,0.192,26.13,35.94,533.786,501.303,0.654,0.5686,180.65,569.75,7,0.3336,0.1137,40.79,483.932,445.552,0.5325,0.0,164.31,553.41,0,0.0,0.0,46.15,476.405,439.872,0.0,0.0,0.157,5,9,0.0,4.3
CON8-1,SAA,50,14,963.63,586.36,29.65,616.02,0,0.0,0.0344,413.668,196.058,0.145,0.0,25.0,611.36,2,0.0241,0.016,15.68,66.22,323.017,175.516,0.1105,0.2067,27.77,614.13,3,0.0371,0.0116,6.35,86.33,323.771,192.014,0.09,0.0196,25.0,611.36,2,0.0241,0.016,15.68,66.22,323.017,175.516,0.1105,0.2045,26.84,613.2,2,0.0161,0.0221,9.49,79.56,359.097,190.08,0.1255,0.0305,26.94,613.3,2,0.0163,0.0225,9.16,80.27,361.381,182.708,0.1185,0.0259,27.12,613.48,2,0.0155,0.0231,8.55,81.58,359.551,185.198,0.1225,0.028,26.7,613.07,3,0.0321,0.0133,9.94,78.58,324.245,189.932,0.098,0.0229,17.53,603.89,5,0.0713,0.0099,40.9,11.92,209.901,101.812,0.0745,0.0269,25.15,611.51,3,0.0261,0.0153,15.19,67.29,324.125,171.806,0.1045,0.3642,25.01,611.37,2,0.0235,0.0165,15.67,66.26,323.654,171.845,0.1105,0.1671,16.87,603.23,1,0.005,0.0098,43.12,7.13,216.97,107.606,0.078,1.3946,16.42,602.78,0,0.0,0.0078,44.64,3.87,193.328,96.193,0.0615,0.0182,25.04,611.41,3,0.0261,0.0152,15.54,66.53,321.102,172.715,0.1045,0.0263,14.81,601.17,0,0.0,0.0078,50.06,-7.82,192.043,90.389,0.0635,0.0692,14.16,600.52,0,0.0004,0.0078,52.24,-12.51,184.755,87.615,0.064,0.0524,26.34,612.7,2,0.024,0.0181,11.18,75.92,332.6,186.816,0.1125,0.0114,24.79,611.15,2,0.0222,0.017,16.41,64.66,324.415,165.589,0.111,0.3465,13.95,600.32,0,0.0,0.0078,52.94,-14.03,182.591,91.171,0.064,0.4784,15.88,602.25,3,0.0341,0.0003,46.43,220.467,103.48,0.0045,0.0,5.42,591.78,0,0.0,0.0,81.72,81.042,35.097,0.0,0.0,0.08,14,14,0.0,3.3
CON3-9,Det,50,4,590.64,199.06,73.75,272.82,0,0.0,0.1965,348.68,323.107,0.378,0.0,43.69,242.75,3,0.1991,0.0236,40.76,29.51,175.195,137.532,0.0925,0.2315,56.45,255.52,3,0.2956,0.004,23.46,59.44,156.224,136.765,0.016,0.0213,42.94,242.0,3,0.193,0.0255,41.78,27.76,173.526,137.532,0.0995,0.2453,57.02,256.08,3,0.2369,0.0395,22.69,60.76,248.542,226.277,0.1395,0.0193,47.13,246.19,3,0.1821,0.0441,36.1,37.58,244.409,186.59,0.138,0.0207,59.99,259.05,2,0.0959,0.1069,18.66,67.73,299.192,273.139,0.276,0.0198,48.91,247.97,3,0.2541,0.0084,33.69,41.75,158.545,136.765,0.033,0.0248,57.0,256.06,2,0.1635,0.1082,22.72,60.72,323.627,273.711,0.267,0.025,41.31,240.38,3,0.1999,0.0213,43.98,23.95,171.295,135.425,0.0815,0.711,42.87,241.94,3,0.1974,0.0246,41.87,27.6,179.299,136.765,0.092,0.1976,42.89,241.95,2,0.1391,0.0288,41.85,27.64,203.83,154.934,0.11,1.8656,36.84,235.91,2,0.0799,0.0244,50.04,13.47,202.021,153.982,0.0865,0.0339,41.03,240.09,3,0.2006,0.0203,44.37,23.28,165.837,134.356,0.0785,0.0279,39.8,238.86,2,0.1635,0.0243,46.04,20.39,176.45,137.009,0.0935,0.1005,34.45,233.51,2,0.0876,0.0219,53.29,7.86,179.07,138.613,0.081,0.1123,41.05,240.12,3,0.1993,0.0211,44.34,23.34,173.923,135.775,0.08,0.0126,40.44,239.5,3,0.1978,0.0204,45.17,21.89,174.942,136.868,0.077,0.3893,34.12,233.18,2,0.0721,0.0204,53.74,7.08,181.214,141.852,0.0755,1.1625,31.1,230.16,3,0.1965,0.0,57.83,136.846,127.171,0.0,0.0,20.85,219.91,0,0.0,0.0,71.73,120.556,105.067,0.0,0.0,0.07,2,4,0.0,5.0
CON3-9,SAA,50,5,653.43,240.34,9.4,249.74,0,0.0,0.0325,153.736,60.79,0.081,0.0,6.95,247.29,1,0.0332,0.0044,26.07,44.1,105.642,59.819,0.02,0.2439,11.26,251.6,2,0.0596,0.001,-19.83,142.52,122.603,74.71,0.005,0.023,6.95,247.29,1,0.0332,0.0044,26.07,44.1,105.642,59.819,0.02,0.2347,7.18,247.52,1,0.0292,0.0087,23.63,49.33,109.926,59.336,0.032,0.0188,6.81,247.15,1,0.0262,0.0093,27.5,41.04,108.464,59.814,0.0325,0.0207,7.16,247.5,1,0.0192,0.0141,23.79,48.99,118.837,56.434,0.048,0.0204,8.32,248.67,2,0.044,0.0016,11.4,75.56,107.963,68.952,0.008,0.0241,3.35,243.69,2,0.0583,0.0017,64.37,-38.04,46.785,21.089,0.008,0.0234,6.27,246.61,1,0.03,0.0052,33.27,28.65,100.602,59.028,0.0235,0.6453,6.57,246.91,1,0.0278,0.0072,30.06,35.54,104.614,56.531,0.03,0.2001,3.47,243.82,0,0.0,0.0012,63.03,-35.15,45.986,23.832,0.0055,1.6885,4.55,244.9,0,0.0,0.0037,51.53,-10.51,57.716,29.002,0.013,0.0249,6.18,246.52,1,0.0303,0.0047,34.25,26.56,98.866,53.64,0.0205,0.0301,2.5,242.84,0,0.0,0.0022,73.4,-57.41,40.305,16.443,0.011,0.0895,2.51,242.85,0,0.0002,0.0022,73.31,-57.2,40.485,16.443,0.011,0.0908,6.96,247.3,1,0.0293,0.0078,25.91,44.43,109.175,61.318,0.027,0.0123,5.95,246.29,1,0.0304,0.0039,36.69,21.32,95.748,56.424,0.0185,0.4262,2.41,242.76,0,0.0004,0.0011,74.31,-59.35,38.944,16.443,0.0055,0.9382,5.01,245.36,1,0.0325,0.0,46.63,81.689,31.491,0.0,0.0,1.45,241.79,0,0.0,0.0,84.56,24.485,10.53,0.0,0.0,0.07,5,5,0.0,4.5
CON3-8,Det,50,4,523.05,192.3,122.68,314.98,0,0.0,0.2466,325.379,286.273,0.5425,0.0,67.17,259.47,2,0.2725,0.028,45.25,21.16,226.694,184.517,0.1,0.2688,74.6,266.9,2,0.3265,0.0201,39.19,31.72,227.151,184.517,0.071,0.0284,65.77,258.07,2,0.2451,0.0377,46.39,19.18,233.977,191.51,0.1345,0.2843,71.56,263.86,2,0.2849,0.0319,41.67,27.4,241.354,198.506,0.105,0.0231,85.72,278.03,2,0.2268,0.0811,30.12,47.52,308.727,285.6,0.2415,0.0223,97.75,290.05,1,0.1338,0.1318,20.32,64.59,301.07,260.742,0.4565,0.0213,71.77,264.08,2,0.3069,0.0224,41.5,27.7,225.745,184.517,0.08,0.025,117.2,309.5,1,0.0558,0.2119,4.47,92.22,322.035,308.14,0.495,0.0282,65.9,258.21,2,0.2506,0.0351,46.28,19.37,233.893,192.508,0.123,1.1033,66.93,259.24,2,0.2423,0.0429,45.44,20.83,229.828,189.633,0.1545,0.206,64.98,257.29,2,0.2271,0.0381,47.03,18.06,223.971,191.303,0.1365,1.803,65.24,257.54,2,0.227,0.0348,46.82,18.42,220.249,192.802,0.126,0.0392,65.7,258.0,2,0.2516,0.0344,46.45,19.07,233.505,191.303,0.12,0.0292,64.48,256.78,2,0.2275,0.0367,47.44,17.34,226.247,190.668,0.128,0.1113,64.49,256.79,2,0.2298,0.0361,47.43,17.36,225.764,189.965,0.1255,0.1211,66.59,258.9,2,0.2574,0.0339,45.72,20.35,233.178,197.871,0.1225,0.0123,64.9,257.21,2,0.2492,0.034,47.09,17.95,232.948,191.303,0.1175,0.389,63.82,256.13,2,0.2204,0.0344,47.98,16.41,225.459,190.7,0.1205,1.1685,52.26,244.57,2,0.2289,0.0177,57.4,219.657,183.4,0.0635,0.0,46.94,239.24,0,0.0,0.0,61.74,209.075,183.4,0.0,0.0,0.072,4,4,0.0,5.4
CON3-8,SAA,50,5,624.76,237.48,10.32,247.79,0,0.0,0.0317,173.464,70.652,0.078,0.0,7.3,244.78,1,0.0289,0.0056,29.22,40.42,120.09,57.155,0.0255,0.2436,10.84,248.32,2,0.0495,0.0015,-5.12,110.44,134.671,86.734,0.0075,0.0226,7.3,244.78,1,0.0289,0.0056,29.22,40.42,120.09,57.155,0.0255,0.2488,8.37,245.85,1,0.0251,0.0124,18.85,61.56,134.935,64.726,0.0435,0.019,8.54,246.02,1,0.0173,0.0172,17.21,64.91,138.8,67.8,0.059,0.0211,8.52,245.99,1,0.0203,0.0152,17.42,64.49,136.2,70.652,0.056,0.0209,8.43,245.91,2,0.0374,0.0029,18.25,62.8,127.177,70.781,0.0135,0.0249,4.19,241.66,2,0.0495,0.0032,59.41,-21.11,62.073,25.643,0.014,0.0222,6.57,244.04,1,0.0282,0.0057,36.33,25.93,109.746,56.246,0.026,0.5375,6.85,244.32,1,0.0276,0.0062,33.64,31.43,113.3,56.246,0.0275,0.1935,4.38,241.85,0,0.002,0.0025,57.59,-17.4,62.957,25.643,0.0115,1.6738,5.14,242.62,0,0.0,0.0029,50.16,-2.27,68.575,41.872,0.0105,0.0255,6.57,244.04,1,0.0277,0.006,36.32,25.94,109.626,56.246,0.027,0.0276,3.36,240.83,0,0.0,0.0039,67.47,-37.55,58.829,22.824,0.0195,0.0934,3.43,240.91,0,0.0,0.0042,66.74,-36.07,60.388,23.076,0.02,0.0919,7.82,245.3,1,0.0248,0.011,24.18,50.69,126.937,56.715,0.0415,0.0121,6.37,243.84,1,0.0311,0.0034,38.26,22.01,105.011,55.684,0.0165,0.4333,3.19,240.67,0,0.0,0.0022,69.05,-40.78,53.919,22.824,0.0105,0.9965,5.26,242.73,1,0.0317,0.0,49.05,87.321,34.835,0.0,0.0,1.9,239.37,0,0.0,0.0,81.62,32.766,14.817,0.0,0.0,0.069,5,5,0.0,4.5
