Instance,Plan,N_cust,K_routes,Travel_km,Fixed_cost,none_rec,none_TBC,none_S,none_HO,none_fail,none_cvar95,none_p95,none_pem,none_fit_s,v1_end_rec,v1_end_TBC,v1_end_S,v1_end_HO,v1_end_fail,v1_end_saving,v1_end_gap,v1_end_cvar95,v1_end_p95,v1_end_pem,v1_end_fit_s,v1_myo_rec,v1_myo_TBC,v1_myo_S,v1_myo_HO,v1_myo_fail,v1_myo_saving,v1_myo_gap,v1_myo_cvar95,v1_myo_p95,v1_myo_pem,v1_myo_fit_s,fb_tau_rec,fb_tau_TBC,fb_tau_S,fb_tau_HO,fb_tau_fail,fb_tau_saving,fb_tau_gap,fb_tau_cvar95,fb_tau_p95,fb_tau_pem,fb_tau_fit_s,pi1_rec,pi1_TBC,pi1_S,pi1_HO,pi1_fail,pi1_saving,pi1_gap,pi1_cvar95,pi1_p95,pi1_pem,pi1_fit_s,pi2_rec,pi2_TBC,pi2_S,pi2_HO,pi2_fail,pi2_saving,pi2_gap,pi2_cvar95,pi2_p95,pi2_pem,pi2_fit_s,pi3_rec,pi3_TBC,pi3_S,pi3_HO,pi3_fail,pi3_saving,pi3_gap,pi3_cvar95,pi3_p95,pi3_pem,pi3_fit_s,rollout_rec,rollout_TBC,rollout_S,rollout_HO,rollout_fail,rollout_saving,rollout_gap,rollout_cvar95,rollout_p95,rollout_pem,rollout_fit_s,restock_rec,restock_TBC,restock_S,restock_HO,restock_fail,restock_saving,restock_gap,restock_cvar95,restock_p95,restock_pem,restock_fit_s,thr_k_rec,thr_k_TBC,thr_k_S,thr_k_HO,thr_k_fail,thr_k_saving,thr_k_gap,thr_k_cvar95,thr_k_p95,thr_k_pem,thr_k_fit_s,ro_theta_rec,ro_theta_TBC,ro_theta_S,ro_theta_HO,ro_theta_fail,ro_theta_saving,ro_theta_gap,ro_theta_cvar95,ro_theta_p95,ro_theta_pem,ro_theta_fit_s,thr2_rec,thr2_TBC,thr2_S,thr2_HO,thr2_fail,thr2_saving,thr2_gap,thr2_cvar95,thr2_p95,thr2_pem,thr2_fit_s,dp3_n_rec,dp3_n_TBC,dp3_n_S,dp3_n_HO,dp3_n_fail,dp3_n_saving,dp3_n_gap,dp3_n_cvar95,dp3_n_p95,dp3_n_pem,dp3_n_fit_s,v2_lsm_rec,v2_lsm_TBC,v2_lsm_S,v2_lsm_HO,v2_lsm_fail,v2_lsm_saving,v2_lsm_gap,v2_lsm_cvar95,v2_lsm_p95,v2_lsm_pem,v2_lsm_fit_s,v2_act_rec,v2_act_TBC,v2_act_S,v2_act_HO,v2_act_fail,v2_act_saving,v2_act_gap,v2_act_cvar95,v2_act_p95,v2_act_pem,v2_act_fit_s,v2_cf_rec,v2_cf_TBC,v2_cf_S,v2_cf_HO,v2_cf_fail,v2_cf_saving,v2_cf_gap,v2_cf_cvar95,v2_cf_p95,v2_cf_pem,v2_cf_fit_s,dp_n_rec,dp_n_TBC,dp_n_S,dp_n_HO,dp_n_fail,dp_n_saving,dp_n_gap,dp_n_cvar95,dp_n_p95,dp_n_pem,dp_n_fit_s,dp_xl_rec,dp_xl_TBC,dp_xl_S,dp_xl_HO,dp_xl_fail,dp_xl_saving,dp_xl_gap,dp_xl_cvar95,dp_xl_p95,dp_xl_pem,dp_xl_fit_s,dp_xl3_rec,dp_xl3_TBC,dp_xl3_S,dp_xl3_HO,dp_xl3_fail,dp_xl3_saving,dp_xl3_gap,dp_xl3_cvar95,dp_xl3_p95,dp_xl3_pem,dp_xl3_fit_s,oracle_rec,oracle_TBC,oracle_S,oracle_HO,oracle_fail,oracle_saving,oracle_cvar95,oracle_p95,oracle_pem,oracle_fit_s,oracle3_rec,oracle3_TBC,oracle3_S,oracle3_HO,oracle3_fail,oracle3_saving,oracle3_cvar95,oracle3_p95,oracle3_pem,oracle3_fit_s,online_us,act_routes,n_routes,solve_s,eval_s
CON3-0,Det,50,4,617.59,201.76,86.78,288.54,0,0.0,0.2548,252.088,188.115,0.5765,0.0,76.53,278.29,2,0.1491,0.1199,11.8,49.27,209.76,169.133,0.4425,0.3095,89.86,291.62,2,0.2366,0.0931,-3.55,115.25,215.869,197.578,0.3685,0.0289,75.86,277.62,2,0.1423,0.124,12.58,45.94,208.821,169.133,0.45,0.2827,78.7,280.46,2,0.1665,0.125,9.31,60.01,216.506,183.91,0.432,0.0186,76.94,278.7,2,0.1444,0.1351,11.33,51.31,221.86,183.91,0.4435,0.0194,76.67,278.43,1,0.1179,0.144,11.64,49.98,223.358,169.133,0.4875,0.0188,81.43,283.19,2,0.1999,0.0971,6.16,73.54,214.99,193.944,0.381,0.024,77.97,279.73,1,0.0829,0.1954,10.15,56.38,216.425,195.283,0.557,0.0232,73.12,274.88,2,0.154,0.1146,15.74,32.36,204.755,169.133,0.425,0.9235,73.84,275.6,2,0.1426,0.1231,14.91,35.93,205.793,179.45,0.4435,0.1873,70.21,271.97,1,0.0381,0.1263,19.09,17.97,215.484,188.526,0.433,1.7277,69.29,271.04,1,0.0776,0.1116,20.16,13.38,207.372,173.884,0.3945,0.0323,73.24,275.0,2,0.1628,0.1096,15.6,32.96,203.996,169.133,0.4065,0.0328,69.33,271.09,1,0.0495,0.1227,20.1,13.63,216.781,189.159,0.4085,0.1113,67.33,269.09,1,0.0703,0.1128,22.41,3.72,189.997,171.515,0.4065,0.1122,74.71,276.47,2,0.1561,0.1199,13.9,40.25,223.731,183.271,0.419,0.0123,72.93,274.69,2,0.1573,0.1119,15.96,31.43,201.541,169.133,0.4205,0.377,66.86,268.62,1,0.0679,0.1114,22.95,1.39,184.53,166.949,0.4145,1.1036,66.58,268.34,2,0.1658,0.089,23.27,188.903,154.669,0.356,0.0,58.06,259.82,0,0.0,0.0,33.1,165.526,152.315,0.0,0.0,0.078,4,4,0.0,5.1
CON3-0,SAA,50,5,700.38,245.04,11.58,256.62,0,0.0,0.038,206.413,75.091,0.0725,0.0,9.07,254.11,1,0.0371,0.0058,21.67,45.92,150.953,75.091,0.0275,0.2528,11.26,256.3,2,0.0521,0.0024,2.7,93.25,162.181,91.354,0.012,0.0246,9.21,254.25,1,0.0358,0.0071,20.41,49.05,153.25,75.091,0.031,0.2576,10.51,255.55,1,0.0163,0.0244,9.18,77.08,183.243,75.091,0.06,0.018,9.33,254.37,1,0.0242,0.0162,19.38,51.64,160.563,75.091,0.0515,0.0196,9.58,254.62,1,0.0208,0.0187,17.24,56.98,167.614,75.091,0.062,0.0202,9.86,254.89,2,0.0447,0.0033,14.87,62.89,154.945,75.995,0.016,0.023,6.18,251.22,2,0.0526,0.0104,46.64,-16.41,104.616,33.036,0.0375,0.0223,8.38,253.42,1,0.0343,0.0064,27.58,31.17,144.297,68.768,0.028,0.571,8.83,253.87,1,0.0347,0.0071,23.71,40.83,150.187,66.647,0.0315,0.1853,5.8,250.84,0,0.006,0.0053,49.92,-24.6,94.415,35.417,0.0245,1.5984,6.24,251.28,0,0.0,0.0042,46.11,-15.1,82.341,47.806,0.0155,0.0252,8.47,253.51,1,0.0355,0.0061,26.8,33.1,144.834,69.539,0.0265,0.0295,4.11,249.14,0,0.0,0.0042,64.54,-61.1,69.811,27.205,0.02,0.0918,4.11,249.14,0,0.0,0.0042,64.54,-61.1,69.811,27.205,0.02,0.0856,9.57,254.61,1,0.028,0.0143,17.33,56.75,163.318,75.091,0.0535,0.013,8.21,253.24,1,0.0342,0.0061,29.12,27.33,141.272,65.738,0.027,0.3999,3.77,248.81,0,0.0,0.0027,67.41,-68.26,62.857,25.456,0.013,0.9509,6.94,251.98,1,0.038,0.0,40.06,123.771,46.462,0.0,0.0,2.33,247.37,0,0.0,0.0,79.83,42.345,16.518,0.0,0.0,0.064,5,5,0.0,4.4
CON3-2,Det,50,4,523.46,192.35,100.82,293.17,0,0.0,0.3103,280.253,277.419,0.5395,0.0,76.92,269.27,3,0.2386,0.1041,23.7,37.43,220.313,190.262,0.3435,0.2723,88.44,280.78,3,0.3605,0.0629,12.28,67.58,207.986,190.262,0.232,0.0236,75.89,268.24,3,0.2358,0.1011,24.72,34.74,230.234,193.167,0.3295,0.2469,80.98,273.33,3,0.2536,0.1082,19.68,48.06,237.945,215.908,0.349,0.0183,87.62,279.96,2,0.1604,0.1777,13.1,65.43,280.253,277.419,0.3855,0.0193,83.24,275.59,2,0.1876,0.1457,17.44,53.98,245.953,238.517,0.3975,0.019,82.83,275.18,3,0.3251,0.0675,17.84,52.91,211.473,190.262,0.2435,0.0218,100.43,292.78,0,0.012,0.303,0.38,98.99,287.245,279.492,0.5395,0.0313,74.64,266.98,3,0.2482,0.09,25.97,31.45,229.538,191.094,0.301,1.2121,76.05,268.39,3,0.2249,0.1085,24.57,35.14,230.023,193.385,0.3535,0.2157,75.99,268.34,3,0.2278,0.1053,24.63,34.99,232.52,195.479,0.3405,1.722,76.06,268.41,3,0.2425,0.0899,24.56,35.18,234.671,214.064,0.295,0.033,74.53,266.88,3,0.245,0.092,26.07,31.18,229.183,190.842,0.3055,0.0282,74.3,266.65,3,0.2378,0.0935,26.3,30.57,229.375,191.094,0.3105,0.1102,73.98,266.32,3,0.2313,0.0931,26.62,29.72,230.521,191.433,0.309,0.1178,75.49,267.83,3,0.2564,0.0876,25.13,33.68,226.326,190.262,0.296,0.0108,74.59,266.94,3,0.2503,0.0889,26.02,31.33,226.053,190.416,0.301,0.3253,74.26,266.61,3,0.2371,0.0897,26.34,30.47,230.086,191.181,0.3005,1.048,62.63,254.97,3,0.2569,0.0534,37.88,194.864,188.279,0.208,0.0,59.56,251.9,0,0.0,0.0,40.93,194.864,188.279,0.0,0.0,0.086,3,4,0.0,5.3
CON3-2,SAA,50,5,570.07,232.01,6.84,238.85,0,0.0,0.0236,128.766,57.54,0.0575,0.0,5.93,237.94,1,0.026,0.0037,13.28,67.43,104.204,41.142,0.017,0.2277,7.28,239.29,1,0.0354,0.0014,-6.54,116.04,114.503,53.605,0.007,0.024,5.93,237.94,1,0.026,0.0037,13.28,67.43,104.204,41.142,0.017,0.2322,6.03,238.04,0,0.0121,0.0132,11.83,70.98,111.724,38.264,0.038,0.0193,5.39,237.4,1,0.0182,0.0077,21.13,48.16,99.94,38.264,0.024,0.0212,5.67,237.68,0,0.0141,0.011,17.1,58.05,106.41,38.326,0.034,0.0211,6.69,238.69,1,0.0321,0.0019,2.23,94.52,111.121,44.643,0.009,0.0255,3.15,235.16,2,0.043,0.0026,53.93,-32.3,49.34,21.026,0.0105,0.0222,5.1,237.11,1,0.0232,0.0037,25.38,37.73,91.77,38.326,0.016,0.5266,5.38,237.39,1,0.0239,0.004,21.31,47.72,94.965,39.503,0.0185,0.1926,3.13,235.14,0,0.0,0.0022,54.19,-32.94,47.99,21.026,0.009,1.5878,5.41,237.42,0,0.0,0.0035,20.86,48.82,67.005,39.206,0.01,0.0248,5.12,237.13,1,0.0228,0.004,25.13,38.36,92.117,38.264,0.017,0.0276,2.28,234.29,0,0.0,0.0022,66.65,-63.52,42.0,11.727,0.01,0.1079,2.34,234.34,0,0.0001,0.0025,65.82,-61.46,43.147,11.727,0.01,0.1321,5.81,237.82,1,0.0225,0.0064,14.97,63.28,100.867,38.264,0.0205,0.0125,4.9,236.91,0,0.0204,0.0048,28.36,30.42,91.443,38.264,0.0215,0.4119,2.11,234.12,0,0.0,0.0011,69.16,-69.68,37.698,11.84,0.005,1.0015,4.05,236.06,1,0.0236,0.0,40.76,76.497,31.567,0.0,0.0,1.33,233.34,0,0.0,0.0,80.53,25.455,9.684,0.0,0.0,0.112,5,5,0.0,4.5
CON3-1,Det,50,4,554.47,195.45,111.05,306.49,0,0.0,0.3448,279.367,270.664,0.5775,0.0,83.11,278.56,3,0.2797,0.0971,25.15,35.36,211.809,194.671,0.335,0.2894,94.94,290.39,3,0.3985,0.055,14.5,62.74,206.322,194.671,0.204,0.0248,81.99,277.43,3,0.2934,0.0871,26.17,32.76,213.374,194.671,0.305,0.2596,86.57,282.01,3,0.3075,0.0949,22.04,43.35,227.501,195.603,0.321,0.0194,88.97,284.42,3,0.2541,0.13,19.88,48.91,273.342,235.568,0.351,0.0212,84.25,279.7,3,0.2765,0.102,24.13,38.0,244.04,203.97,0.3275,0.0195,87.88,283.32,3,0.3578,0.062,20.86,46.39,206.858,194.671,0.2295,0.022,109.48,304.93,1,0.0226,0.3284,1.41,96.37,287.046,280.264,0.5575,0.0259,80.59,276.04,3,0.2899,0.0862,27.42,29.53,214.17,192.895,0.301,1.4892,81.84,277.29,3,0.2829,0.0932,26.3,32.42,214.679,194.671,0.325,0.1895,81.0,276.44,3,0.287,0.077,27.06,30.46,209.479,194.273,0.2795,1.5923,79.36,274.81,3,0.2662,0.0809,28.53,26.69,218.382,192.895,0.2845,0.0316,80.6,276.04,3,0.2948,0.0836,27.42,29.53,214.974,192.895,0.292,0.0305,79.08,274.53,3,0.2679,0.0864,28.79,26.03,214.463,192.895,0.301,0.1427,78.41,273.85,3,0.2539,0.083,29.39,24.47,215.224,192.895,0.29,0.1291,80.82,276.27,3,0.2984,0.082,27.22,30.06,214.102,192.895,0.289,0.0173,80.06,275.51,3,0.2957,0.0815,27.91,28.29,211.9,192.895,0.289,0.4276,78.26,273.71,3,0.2558,0.0817,29.52,24.14,212.54,193.294,0.2905,1.1522,67.83,263.28,3,0.2958,0.049,38.91,202.944,187.623,0.181,0.0,62.87,258.32,0,0.0,0.0,43.39,202.944,187.623,0.0,0.0,0.075,3,4,0.0,5.7
CON3-1,SAA,50,5,616.97,236.7,10.86,247.56,0,0.0,0.0376,192.99,61.89,0.0725,0.0,8.13,244.83,1,0.0326,0.0078,25.14,40.67,139.604,61.89,0.034,0.2051,10.39,247.09,2,0.05,0.002,4.32,89.81,153.536,84.009,0.0095,0.0195,8.09,244.79,1,0.0335,0.0071,25.53,39.75,138.893,61.89,0.0305,0.2033,9.68,246.37,1,0.0226,0.0203,10.94,74.18,163.807,64.946,0.061,0.0181,8.81,245.5,1,0.0232,0.0169,18.93,55.33,154.604,56.804,0.048,0.0199,9.12,245.82,1,0.0197,0.0197,16.07,62.06,160.02,61.89,0.0625,0.0197,9.2,245.9,2,0.0436,0.0033,15.29,63.91,145.069,76.887,0.015,0.0269,4.57,241.27,3,0.0672,0.0036,57.89,-36.63,65.254,29.252,0.0135,0.0224,7.82,244.52,1,0.0346,0.0067,28.03,33.85,134.298,60.843,0.0285,0.552,7.83,244.52,1,0.0336,0.0071,27.96,34.0,134.62,60.896,0.0305,0.182,4.63,241.33,0,0.0,0.0045,57.38,-35.43,69.395,29.184,0.018,1.4123,5.95,242.65,0,0.0,0.0028,45.24,-6.78,79.606,43.898,0.0095,0.0226,7.78,244.48,1,0.0338,0.0071,28.35,33.1,134.343,60.843,0.029,0.0239,3.53,240.23,0,0.0,0.0025,67.51,-59.35,57.9,23.952,0.01,0.1185,3.59,240.29,0,0.0006,0.0024,66.97,-58.06,59.087,23.952,0.0095,0.1341,9.28,245.98,1,0.0221,0.0191,14.55,65.65,161.287,61.89,0.046,0.0104,7.47,244.17,1,0.0344,0.0056,31.22,26.31,129.303,53.158,0.025,0.3642,3.49,240.19,0,0.0,0.0026,67.83,-60.11,58.776,23.905,0.0105,1.0271,6.26,242.96,1,0.0376,0.0,42.37,111.21,36.208,0.0,0.0,2.19,238.89,0,0.0,0.0,79.8,40.185,16.018,0.0,0.0,0.098,5,5,0.0,4.2
CON3-3,Det,50,4,607.67,200.77,114.65,315.41,0,0.0,0.3615,275.579,270.592,0.5735,0.0,78.19,278.96,3,0.3326,0.0534,31.8,30.63,192.368,173.423,0.1865,0.2802,95.67,296.44,3,0.4689,0.009,16.55,63.89,170.757,151.079,0.0345,0.0264,76.48,277.25,3,0.3195,0.0614,33.29,27.37,198.208,184.157,0.209,0.2726,82.34,283.11,3,0.3858,0.0444,28.17,38.52,204.383,187.378,0.16,0.0211,86.59,287.36,3,0.3299,0.0939,24.47,46.61,228.883,221.113,0.281,0.0226,78.14,278.91,3,0.3156,0.0679,31.84,30.53,197.488,186.46,0.236,0.0213,88.15,288.92,3,0.4375,0.011,23.11,49.58,169.561,151.079,0.042,0.0268,112.18,312.95,1,0.0453,0.3291,2.15,95.32,293.241,282.403,0.5435,0.0365,74.17,274.94,3,0.3481,0.0411,35.3,22.97,194.0,178.888,0.151,1.4701,75.64,276.41,3,0.3169,0.0636,34.02,25.77,196.967,183.09,0.219,0.2383,76.86,277.63,3,0.334,0.0384,32.96,28.09,195.193,175.27,0.1395,1.7207,72.02,272.79,3,0.2908,0.0408,37.18,18.87,198.643,178.415,0.147,0.032,73.98,274.74,3,0.3469,0.0415,35.47,22.6,193.841,176.697,0.152,0.032,73.1,273.87,3,0.3289,0.0429,36.24,20.94,194.468,178.34,0.156,0.1226,70.86,271.63,3,0.29,0.0413,38.19,16.68,194.641,178.392,0.1525,0.1417,73.75,274.52,3,0.358,0.0339,35.67,22.17,189.65,170.163,0.125,0.0124,73.53,274.3,3,0.3489,0.0384,35.86,21.75,190.474,171.224,0.1415,0.4057,70.46,271.23,3,0.2853,0.0413,38.54,15.91,192.985,174.373,0.151,1.1841,62.1,262.87,3,0.3583,0.0032,45.83,155.597,142.799,0.0125,0.0,53.52,254.29,0,0.0,0.0,53.31,155.515,142.799,0.0,0.0,0.076,3,4,0.0,5.8
CON3-3,SAA,50,5,713.82,246.38,15.71,262.09,0,0.0,0.0568,232.126,113.523,0.106,0.0,12.63,259.01,2,0.0486,0.0139,19.61,53.14,173.482,110.04,0.0555,0.2769,17.99,264.38,3,0.0814,0.0049,-14.56,134.79,195.47,151.773,0.022,0.0268,12.63,259.01,2,0.0486,0.0139,19.61,53.14,173.482,110.04,0.0555,0.2629,13.25,259.64,2,0.0399,0.0244,15.62,62.68,181.449,118.697,0.0855,0.0196,12.02,258.4,2,0.0462,0.0166,23.48,43.91,169.16,97.327,0.057,0.0224,11.84,258.22,2,0.0468,0.0139,24.64,41.13,165.36,106.676,0.0565,0.0214,13.89,260.27,3,0.0639,0.0064,11.6,72.28,175.653,118.093,0.028,0.0261,6.35,252.73,4,0.0947,0.0065,59.6,-42.4,83.113,41.195,0.021,0.0233,11.41,257.79,2,0.049,0.0124,27.34,34.67,158.655,99.595,0.05,0.5645,11.91,258.29,2,0.0469,0.0144,24.18,42.22,163.556,104.138,0.058,0.2022,6.02,252.41,0,0.0,0.003,61.65,-47.3,71.407,42.674,0.0135,1.8781,6.2,252.59,0,0.0,0.0057,60.51,-44.56,79.082,45.052,0.018,0.0409,11.41,257.79,2,0.0482,0.0129,27.37,34.62,158.246,97.617,0.0525,0.0306,5.14,251.53,0,0.0,0.0067,67.25,-60.69,75.434,35.736,0.023,0.1091,5.17,251.55,0,0.0,0.0067,67.1,-60.32,75.985,35.716,0.024,0.1498,11.97,258.35,2,0.0491,0.014,23.81,43.11,165.681,100.451,0.056,0.0123,11.49,257.87,2,0.0494,0.0125,26.85,35.85,157.312,98.44,0.0505,0.431,4.79,251.17,0,0.0,0.0044,69.52,-66.1,68.04,35.596,0.016,1.4616,9.13,255.52,2,0.0568,0.0,41.85,134.593,66.626,0.0,0.0,2.82,249.2,0,0.0,0.0,82.06,42.968,21.712,0.0,0.0,0.078,5,5,0.0,5.4
CON3-5,Det,50,4,593.84,199.38,130.73,330.11,0,0.0,0.3596,291.828,289.839,0.5915,0.0,104.06,303.44,3,0.2865,0.1304,20.4,45.87,254.397,250.564,0.3875,0.2438,108.52,307.9,3,0.3846,0.0899,16.99,54.91,250.961,250.564,0.2845,0.0249,103.23,302.61,3,0.2605,0.1437,21.03,44.19,257.217,250.054,0.4145,0.2867,113.86,313.24,3,0.2499,0.1787,12.91,65.76,291.814,289.494,0.4405,0.0182,108.42,307.81,3,0.2893,0.1445,17.06,54.73,261.733,250.054,0.4045,0.019,122.39,321.78,1,0.0729,0.2945,6.38,83.08,290.175,287.099,0.5765,0.0191,107.25,306.64,3,0.3656,0.0971,17.96,52.35,250.961,250.564,0.306,0.0215,129.82,329.21,1,0.053,0.33,0.69,98.16,311.185,303.708,0.559,0.0449,103.43,302.81,3,0.2795,0.1345,20.88,44.59,257.507,250.054,0.3965,1.487,103.39,302.78,3,0.2558,0.1471,20.91,44.52,257.856,250.054,0.421,0.1913,102.97,302.36,3,0.2689,0.1321,21.23,43.66,256.384,250.054,0.3875,1.5457,103.97,303.35,3,0.284,0.1216,20.47,45.68,255.586,250.054,0.3645,0.0279,103.63,303.02,3,0.2848,0.132,20.73,45.0,257.162,250.054,0.3895,0.0257,103.08,302.47,3,0.2492,0.1402,21.15,43.89,262.181,250.054,0.402,0.1135,102.91,302.3,3,0.2664,0.1353,21.28,43.54,257.32,250.054,0.394,0.1331,103.84,303.23,3,0.2963,0.1266,20.57,45.43,257.021,250.054,0.375,0.0103,103.57,302.96,3,0.2967,0.1249,20.77,44.89,254.639,250.054,0.3735,0.2936,103.04,302.43,3,0.2828,0.1239,21.18,43.81,255.809,250.054,0.3675,1.0088,81.46,280.84,3,0.2893,0.0704,37.69,249.954,247.177,0.226,0.0,76.17,275.56,0,0.0,0.0,41.73,249.902,247.177,0.0,0.0,0.075,4,4,0.0,5.3
CON3-5,SAA,50,5,630.37,238.04,6.43,244.47,0,0.0,0.022,122.101,51.103,0.0565,0.0,5.67,243.7,1,0.0236,0.0039,11.95,71.7,100.967,37.653,0.017,0.2165,7.44,245.48,1,0.0361,0.001,-15.61,136.98,109.451,53.477,0.0045,0.0202,5.67,243.7,1,0.0236,0.0039,11.95,71.7,100.967,37.653,0.017,0.2114,5.42,243.46,0,0.014,0.0101,15.76,62.66,100.304,33.812,0.0345,0.0218,5.37,243.4,0,0.0127,0.0108,16.59,60.71,99.366,37.555,0.036,0.0211,5.43,243.47,0,0.0117,0.0116,15.56,63.14,101.958,29.476,0.037,0.0188,6.1,244.14,1,0.0305,0.0012,5.15,87.81,100.706,49.119,0.0055,0.0287,3.08,241.12,1,0.0286,0.0051,52.11,-23.42,55.805,13.529,0.0205,0.0191,4.87,242.9,1,0.0202,0.0047,24.38,42.26,88.363,35.591,0.02,0.5134,4.97,243.01,1,0.021,0.0042,22.79,46.02,89.628,35.129,0.0175,0.2385,3.42,241.46,0,0.005,0.0032,46.83,-10.91,58.852,22.867,0.0145,1.5126,4.37,242.4,0,0.0,0.0043,32.13,23.91,61.805,26.662,0.0145,0.0276,4.74,242.78,1,0.0196,0.0046,26.29,37.72,86.479,31.67,0.0195,0.0242,2.42,240.46,0,0.0,0.0027,62.33,-47.62,44.585,11.238,0.012,0.078,2.35,240.39,0,0.0,0.0026,63.47,-50.33,43.116,11.238,0.0115,0.0825,5.58,243.61,1,0.0204,0.007,13.33,68.43,97.544,31.67,0.025,0.0121,4.73,242.77,1,0.0207,0.0039,26.43,37.4,86.244,31.67,0.0155,0.3957,2.17,240.21,0,0.0,0.0018,66.25,-56.92,39.955,11.303,0.009,0.8931,3.72,241.76,1,0.022,0.0,42.22,70.567,29.46,0.0,0.0,1.26,239.29,0,0.0,0.0,80.48,24.421,5.838,0.0,0.0,0.055,5,5,0.0,4.1
CON3-4,Det,50,4,599.73,199.97,136.17,336.14,0,0.0,0.38,293.574,291.562,0.6,0.0,94.56,294.54,3,0.3748,0.0606,30.55,34.91,219.851,203.581,0.2105,0.3044,99.39,299.36,3,0.4686,0.019,27.01,42.46,200.1,178.465,0.0705,0.0287,94.28,294.25,3,0.376,0.0585,30.76,34.47,219.528,203.309,0.205,0.3065,101.0,300.97,3,0.3661,0.081,25.82,44.98,237.114,209.785,0.2725,0.021,106.74,306.72,3,0.3331,0.1156,21.61,53.97,259.752,249.155,0.344,0.0218,111.41,311.38,2,0.2585,0.1599,18.18,61.26,254.542,245.282,0.5265,0.0209,97.22,297.2,3,0.436,0.0326,28.6,39.07,210.247,194.743,0.12,0.0251,135.52,335.49,1,0.0204,0.3652,0.48,98.98,307.682,303.862,0.5965,0.0298,92.73,292.7,3,0.3649,0.0619,31.9,32.04,219.056,202.47,0.2155,1.3342,93.5,293.47,3,0.3681,0.062,31.33,33.25,220.186,204.511,0.2155,0.2193,93.68,293.65,3,0.368,0.0565,31.2,33.53,220.278,203.617,0.2005,1.6901,94.72,294.69,3,0.3501,0.0633,30.44,35.15,220.828,194.743,0.223,0.032,92.69,292.66,3,0.3676,0.0601,31.93,31.97,219.48,200.518,0.2095,0.0602,92.66,292.63,3,0.3672,0.0599,31.95,31.93,219.558,200.518,0.2095,0.1412,91.38,291.35,3,0.3432,0.0629,32.89,29.93,221.424,200.502,0.216,0.1487,93.03,293.0,3,0.3735,0.0574,31.68,32.51,219.174,202.097,0.2015,0.0119,92.1,292.08,3,0.3758,0.0546,32.36,31.06,215.41,193.687,0.194,0.3425,91.62,291.59,3,0.3534,0.0571,32.72,30.3,221.1,198.161,0.199,1.1634,72.25,272.22,3,0.375,0.005,46.94,167.516,149.507,0.0175,0.0,66.7,266.67,0,0.0,0.0,51.02,167.036,149.507,0.0,0.0,0.081,3,4,0.0,5.5
CON3-4,SAA,50,5,650.56,240.06,7.88,247.94,0,0.0,0.0289,141.993,52.678,0.065,0.0,6.95,247.0,1,0.0274,0.0064,11.87,71.36,116.999,52.556,0.029,0.23,8.71,248.77,1,0.0381,0.0041,-10.51,125.36,132.409,68.385,0.019,0.0222,6.87,246.93,1,0.0277,0.006,12.78,69.17,116.112,52.556,0.0275,0.2209,6.7,246.76,0,0.0142,0.0161,14.98,63.86,119.444,52.678,0.055,0.017,6.66,246.72,0,0.0145,0.0158,15.45,62.71,120.948,51.668,0.047,0.0184,6.98,247.03,0,0.0107,0.0192,11.47,72.33,125.932,52.678,0.0555,0.0183,7.55,247.61,1,0.0326,0.0048,4.19,89.89,122.264,54.997,0.0225,0.022,3.71,243.77,2,0.0423,0.0061,52.94,-27.74,61.858,21.965,0.028,0.019,6.2,246.25,1,0.0267,0.0067,21.39,48.39,107.848,51.618,0.0285,0.5532,6.21,246.27,1,0.026,0.0069,21.18,48.89,108.394,51.618,0.031,0.1778,3.64,243.7,0,0.0,0.0065,53.78,-29.79,62.17,20.529,0.0275,1.5691,5.32,245.37,0,0.0,0.0111,32.52,21.52,83.789,25.703,0.0315,0.0255,6.16,246.21,1,0.0261,0.0069,21.87,47.23,106.906,51.668,0.03,0.0256,2.73,242.79,0,0.0,0.0039,65.36,-57.71,47.997,15.852,0.0165,0.0986,2.73,242.79,0,0.0,0.0039,65.36,-57.71,47.997,15.852,0.0165,0.0983,7.14,247.2,1,0.0158,0.0164,9.42,77.27,123.332,52.612,0.0505,0.0118,5.97,246.03,1,0.0256,0.0066,24.21,41.58,105.787,51.618,0.0295,0.3973,2.25,242.3,0,0.0,0.001,71.49,-72.51,37.852,16.193,0.005,0.8791,4.62,244.67,1,0.0289,0.0,41.44,83.126,32.55,0.0,0.0,1.34,241.4,0,0.0,0.0,82.97,24.713,8.07,0.0,0.0,0.099,5,5,0.0,4.2
CON3-6,Det,50,4,515.59,191.56,101.04,292.59,0,0.0,0.2883,272.85,265.614,0.5715,0.0,75.61,267.17,3,0.2244,0.0895,25.16,38.13,204.008,196.716,0.3165,0.2366,83.53,275.09,3,0.3518,0.0354,17.32,57.4,198.045,196.716,0.1395,0.0207,74.03,265.59,3,0.2313,0.081,26.73,34.27,205.299,196.331,0.288,0.2291,78.94,270.5,2,0.2619,0.0822,21.87,46.22,227.484,206.675,0.267,0.0198,84.21,275.77,2,0.1906,0.1359,16.65,59.05,257.98,229.798,0.3805,0.0212,96.04,287.6,1,0.0541,0.2416,4.95,87.83,272.85,265.614,0.504,0.0206,78.0,269.56,3,0.3153,0.0435,22.79,43.95,198.15,196.596,0.17,0.0268,98.51,290.07,1,0.0464,0.2593,2.5,93.86,285.86,274.493,0.56,0.026,72.36,263.92,3,0.2548,0.0639,28.38,30.2,203.824,195.779,0.2345,1.1822,74.74,266.3,2,0.2176,0.0906,26.02,36.01,210.588,196.345,0.311,0.1994,73.44,265.0,2,0.2079,0.077,27.31,32.85,208.004,196.164,0.2725,1.7696,72.25,263.81,2,0.2044,0.0732,28.49,29.93,210.982,196.044,0.2555,0.0263,72.33,263.89,3,0.2535,0.0645,28.41,30.14,204.594,195.779,0.236,0.0265,70.96,262.52,2,0.2036,0.0684,29.76,26.81,219.618,186.311,0.238,0.1004,70.4,261.96,2,0.2109,0.0669,30.32,25.44,211.407,186.285,0.235,0.1138,73.26,264.82,3,0.2434,0.0725,27.49,32.4,208.302,195.785,0.259,0.0105,71.82,263.38,3,0.2496,0.0658,28.92,28.89,204.791,195.779,0.2405,0.3413,70.07,261.63,2,0.2092,0.066,30.64,24.64,207.58,184.296,0.2385,0.9563,59.95,251.51,3,0.2578,0.0305,40.67,194.781,190.31,0.122,0.0,55.44,247.0,0,0.0,0.0,45.12,186.741,172.713,0.0,0.0,0.071,4,4,0.0,5.1
CON3-6,SAA,50,5,562.39,231.24,7.12,238.36,0,0.0,0.0245,127.545,55.154,0.064,0.0,5.77,237.01,1,0.0224,0.0055,18.95,54.49,99.065,45.456,0.0245,0.2219,7.27,238.51,1,0.0328,0.0022,-2.21,105.31,105.907,50.7,0.0105,0.0234,5.73,236.97,1,0.023,0.005,19.47,53.22,98.244,44.337,0.0225,0.2175,6.06,237.3,1,0.0144,0.0122,14.81,64.42,108.78,35.076,0.0395,0.0174,5.73,236.97,1,0.0176,0.0091,19.53,53.09,99.841,37.211,0.0305,0.019,6.44,237.67,0,0.0086,0.0168,9.56,77.02,116.267,51.791,0.051,0.0189,6.53,237.76,1,0.03,0.0024,8.31,80.04,101.267,47.054,0.0115,0.0231,3.84,235.08,1,0.0345,0.0064,46.06,-10.64,65.78,19.82,0.0285,0.0195,5.21,236.45,1,0.0237,0.0039,26.75,35.75,90.691,37.211,0.0175,0.4939,5.27,236.51,1,0.0199,0.0064,25.9,37.78,93.785,37.211,0.029,0.1707,3.87,235.11,0,0.0095,0.0022,45.55,-9.42,66.489,25.674,0.011,1.5123,4.36,235.6,0,0.0,0.0025,38.68,7.07,54.207,32.741,0.0085,0.0245,5.18,236.42,1,0.0228,0.0043,27.22,34.62,90.33,37.211,0.0195,0.0258,2.64,233.88,0,0.0,0.0026,62.94,-51.21,42.922,15.514,0.0125,0.098,2.55,233.79,0,0.0004,0.0025,64.18,-54.18,41.405,15.514,0.012,0.1016,6.23,237.47,1,0.0182,0.0103,12.4,70.21,104.44,51.565,0.037,0.011,5.05,236.29,1,0.022,0.0044,28.99,30.35,89.017,37.211,0.02,0.3846,2.17,233.4,0,0.0,0.001,69.57,-67.13,36.247,15.514,0.005,0.9964,4.15,235.39,1,0.0245,0.0,41.63,74.304,32.462,0.0,0.0,1.41,232.65,0,0.0,0.0,80.2,25.898,10.588,0.0,0.0,0.058,5,5,0.0,4.2
CON3-7,Det,50,4,586.71,198.67,103.9,302.57,0,0.0,0.3134,284.694,276.968,0.5485,0.0,74.31,272.98,3,0.2705,0.071,28.48,38.71,201.393,187.429,0.2415,0.2881,82.6,281.27,3,0.3986,0.0152,20.5,55.88,177.063,147.589,0.06,0.031,73.75,272.42,3,0.2883,0.0584,29.02,37.54,200.027,182.889,0.203,0.2927,78.5,277.17,3,0.3064,0.0624,24.44,47.39,214.046,193.669,0.2145,0.0192,82.28,280.95,3,0.2422,0.1143,20.81,55.22,259.005,232.897,0.302,0.0192,90.78,289.45,1,0.1293,0.196,12.62,72.83,249.814,235.335,0.461,0.0188,79.72,278.39,3,0.3809,0.0194,23.27,49.92,180.843,147.589,0.0755,0.0228,103.9,302.57,0,0.0,0.3134,0.0,100.0,284.694,276.968,0.5485,0.0282,70.96,269.63,3,0.2935,0.0525,31.7,31.77,198.577,182.875,0.1875,1.2948,73.02,271.69,3,0.2679,0.0715,29.72,36.04,204.373,190.109,0.239,0.2141,73.45,272.12,3,0.2926,0.0541,29.3,36.93,198.719,182.588,0.1915,1.8243,69.82,268.49,3,0.294,0.0454,32.8,29.4,197.304,182.175,0.1645,0.0264,70.34,269.01,3,0.3091,0.0426,32.3,30.49,196.803,181.234,0.1545,0.0298,70.28,268.95,3,0.3048,0.0424,32.36,30.36,198.364,182.21,0.153,0.1018,70.21,268.88,3,0.3009,0.0446,32.42,30.22,197.25,182.195,0.1595,0.1061,70.49,269.16,3,0.3123,0.0409,32.15,30.8,197.829,180.691,0.146,0.0117,69.59,268.26,3,0.3008,0.0446,33.02,28.94,198.753,180.348,0.1575,0.3673,68.99,267.66,3,0.2913,0.0451,33.6,27.7,198.301,179.399,0.158,0.8663,55.62,254.29,3,0.3077,0.0056,46.46,163.775,144.775,0.0225,0.0,53.24,251.92,0,0.0,0.0,48.75,163.383,144.775,0.0,0.0,7.983,3,4,0.0,5.3
CON3-7,SAA,50,5,635.3,238.53,5.61,244.14,0,0.0,0.0193,109.083,52.321,0.053,0.0,4.7,243.23,0,0.0159,0.0054,16.27,60.68,88.44,41.917,0.0235,0.2013,6.5,245.03,1,0.0279,0.0022,-15.8,138.16,98.639,51.492,0.0105,0.02,4.74,243.28,1,0.0165,0.0051,15.41,62.77,88.466,41.917,0.0225,0.1987,4.57,243.1,1,0.0151,0.0067,18.46,55.39,85.716,30.285,0.027,0.0238,4.74,243.27,0,0.0101,0.0103,15.53,62.49,90.81,33.501,0.0315,0.0253,4.91,243.44,0,0.0077,0.0121,12.39,70.07,95.303,33.501,0.0375,0.0251,5.19,243.72,1,0.0226,0.0025,7.53,81.82,89.848,41.917,0.0115,0.0368,2.76,241.29,1,0.0262,0.0035,50.75,-22.61,49.587,16.463,0.016,0.0175,4.37,242.9,1,0.0181,0.0041,22.05,46.72,81.702,33.501,0.0165,0.4799,4.61,243.14,0,0.0172,0.005,17.83,56.93,85.508,35.752,0.0225,0.174,2.51,241.04,0,0.0,0.0014,55.32,-33.64,41.348,17.991,0.007,1.436,3.58,242.11,0,0.0,0.0042,36.15,12.67,56.581,20.611,0.016,0.0213,4.43,242.96,1,0.0171,0.0049,21.04,49.17,83.078,33.501,0.0205,0.0234,1.86,240.39,0,0.0,0.0013,66.83,-61.44,34.343,9.451,0.0065,0.0795,1.86,240.39,0,0.0,0.0013,66.81,-61.42,34.356,9.451,0.0065,0.077,5.1,243.63,1,0.0158,0.0076,9.05,78.14,91.204,35.752,0.024,0.0099,4.14,242.67,0,0.0168,0.0041,26.24,36.61,78.679,33.501,0.018,0.5247,1.77,240.3,0,0.0,0.0008,68.37,-65.17,32.304,9.451,0.004,0.8328,3.29,241.82,1,0.0193,0.0,41.39,63.953,30.285,0.0,0.0,1.11,239.64,0,0.0,0.0,80.18,21.835,7.594,0.0,0.0,0.058,5,5,0.0,4.0
CON8-1,Det,50,9,740.93,389.09,252.39,641.48,0,0.0,0.4473,581.274,577.447,0.7325,0.0,216.78,605.87,6,0.2801,0.2211,14.11,55.85,484.599,464.598,0.6835,0.237,223.0,612.1,6,0.3478,0.1899,11.64,63.57,467.897,442.595,0.6675,0.0202,216.91,606.01,6,0.2779,0.2226,14.06,56.01,487.634,464.939,0.6815,0.2314,232.27,621.36,5,0.2447,0.2704,7.97,75.05,512.924,490.32,0.7,0.0232,228.2,617.3,5,0.2161,0.2792,9.58,70.01,549.461,529.356,0.6915,0.0226,225.69,614.78,5,0.2159,0.2746,10.58,66.9,528.969,504.142,0.692,0.023,219.03,608.12,6,0.317,0.2022,13.22,58.64,474.944,458.467,0.672,0.023,238.31,627.4,3,0.0968,0.3959,5.58,82.54,591.556,583.397,0.721,0.0309,217.14,606.23,6,0.2811,0.2222,13.97,56.29,489.357,466.637,0.6845,0.5415,216.83,605.93,6,0.2751,0.2244,14.09,55.92,487.785,466.636,0.6835,0.1808,209.2,598.29,5,0.2326,0.2141,17.11,46.45,485.501,464.598,0.673,1.6467,208.63,597.72,5,0.2263,0.2181,17.34,45.74,484.524,462.902,0.679,0.0185,216.95,606.05,6,0.2823,0.2212,14.04,56.06,488.582,465.33,0.6835,0.0257,211.14,600.24,5,0.2192,0.2288,16.34,48.86,498.896,471.007,0.685,0.0763,207.41,596.51,5,0.2226,0.218,17.82,44.24,488.477,463.987,0.678,0.0664,217.94,607.04,6,0.2747,0.2273,13.65,57.29,493.452,469.899,0.6835,0.0105,215.82,604.91,6,0.2872,0.2164,14.49,54.66,484.279,462.572,0.6815,0.2998,206.65,595.74,5,0.2127,0.2182,18.12,43.29,488.045,466.586,0.6745,0.4925,171.74,560.83,7,0.3336,0.1137,31.96,442.362,415.208,0.5325,0.0,155.39,544.49,0,0.0,0.0,38.43,435.317,410.784,0.0,0.0,0.081,4,9,0.0,3.8
CON8-1,SAA,50,14,963.63,586.36,26.4,612.77,0,0.0,0.0344,366.578,170.004,0.145,0.0,23.42,609.78,2,0.022,0.0173,11.3,71.72,304.456,165.53,0.112,0.2182,25.84,612.2,3,0.0324,0.0134,2.15,94.63,308.51,175.512,0.097,0.0205,23.42,609.78,2,0.022,0.0173,11.3,71.72,304.456,165.53,0.112,0.2103,24.43,610.79,2,0.0151,0.0227,7.48,81.29,325.764,170.019,0.1255,0.0272,24.71,611.08,2,0.0148,0.0233,6.39,84.0,329.727,166.638,0.1205,0.0271,24.75,611.12,1,0.0138,0.024,6.25,84.37,327.606,166.607,0.125,0.0272,24.26,610.63,3,0.0269,0.0151,8.1,79.74,306.173,170.013,0.1045,0.0231,15.76,602.13,4,0.0467,0.0131,40.3,-0.83,210.116,100.486,0.0935,0.0262,23.42,609.78,2,0.0238,0.0163,11.3,71.73,303.253,165.509,0.107,0.3559,23.3,609.66,2,0.0212,0.0177,11.75,70.6,304.924,166.302,0.1155,0.1693,15.61,601.98,0,0.0037,0.0111,40.87,-2.25,202.26,100.474,0.087,1.4256,15.3,601.67,0,0.0,0.0086,42.04,-5.17,181.634,89.783,0.0685,0.0202,23.24,609.61,2,0.023,0.0166,11.97,70.06,301.854,165.28,0.1085,0.0253,13.83,600.19,0,0.0,0.0083,47.63,-19.17,178.6,82.992,0.0665,0.0749,13.31,599.67,0,0.0004,0.0083,49.61,-24.11,172.032,82.464,0.067,0.0564,24.82,611.18,2,0.0214,0.0197,6.01,84.97,314.902,168.074,0.115,0.0113,23.35,609.72,2,0.0189,0.0191,11.55,71.1,307.115,165.307,0.1185,0.3548,13.19,599.56,0,0.0,0.0087,50.02,-25.16,171.152,84.665,0.0705,0.5263,15.85,602.21,3,0.0341,0.0003,39.97,219.933,103.48,0.0045,0.0,5.39,591.75,0,0.0,0.0,79.6,80.356,35.097,0.0,0.0,0.08,14,14,0.0,3.4
CON3-9,Det,50,4,590.64,199.06,56.86,255.92,0,0.0,0.1965,256.303,237.571,0.378,0.0,41.4,240.47,3,0.1611,0.0474,27.18,40.0,180.273,158.744,0.1675,0.2125,48.94,248.01,3,0.2531,0.009,13.92,69.27,155.099,136.765,0.036,0.0194,40.94,240.0,3,0.1693,0.0408,28.0,38.19,178.116,157.628,0.147,0.2233,50.41,249.47,3,0.1709,0.0752,11.35,74.95,216.656,180.064,0.2325,0.0163,42.63,241.7,3,0.1696,0.0514,25.02,44.77,204.426,170.81,0.1565,0.0174,48.48,247.55,2,0.0959,0.1069,14.73,67.49,229.108,209.673,0.276,0.0171,45.02,244.09,3,0.2331,0.0122,20.81,54.06,153.933,135.775,0.0485,0.0203,47.12,246.18,2,0.158,0.1096,17.13,62.19,249.879,203.714,0.272,0.0214,38.93,237.99,3,0.1884,0.0259,31.53,30.4,161.946,135.425,0.098,0.7208,40.03,239.1,3,0.1815,0.031,29.59,34.69,166.464,136.765,0.117,0.1685,39.05,238.12,2,0.124,0.0384,31.32,30.87,168.649,145.05,0.1435,1.46,35.05,234.12,2,0.0755,0.03,38.35,15.35,186.156,154.446,0.1045,0.0278,38.89,237.96,3,0.1883,0.0261,31.59,30.26,160.11,134.356,0.0995,0.0241,37.56,236.62,2,0.1512,0.0302,33.94,25.07,166.306,135.405,0.1145,0.0855,32.7,231.76,2,0.0834,0.0245,42.49,6.21,160.623,136.76,0.089,0.1229,39.42,238.49,3,0.1903,0.0261,30.67,32.31,167.288,135.775,0.0975,0.0102,38.91,237.97,3,0.181,0.0312,31.57,30.32,169.005,140.544,0.1165,0.344,32.16,231.23,2,0.0592,0.0285,43.44,4.12,164.73,138.392,0.1045,1.0104,31.1,230.16,3,0.1965,0.0,45.3,136.846,127.171,0.0,0.0,20.85,219.91,0,0.0,0.0,63.33,120.556,105.067,0.0,0.0,0.06,2,4,0.0,4.3
CON3-9,SAA,50,5,653.43,240.34,8.79,249.13,0,0.0,0.0325,143.167,55.921,0.081,0.0,6.9,247.24,1,0.0332,0.0044,21.51,49.9,104.77,59.819,0.02,0.2137,9.47,249.82,2,0.0494,0.0016,-7.82,118.23,113.417,73.304,0.008,0.0204,6.9,247.24,1,0.0332,0.0044,21.51,49.9,104.77,59.819,0.02,0.2094,6.81,247.15,1,0.0248,0.0108,22.46,47.67,107.856,58.986,0.038,0.0155,6.6,246.94,1,0.0262,0.0093,24.87,42.05,104.494,59.028,0.0325,0.0171,6.88,247.23,1,0.0192,0.0141,21.66,49.55,113.56,53.346,0.048,0.0172,7.54,247.88,2,0.0404,0.0017,14.16,67.02,106.054,66.471,0.008,0.0206,3.26,243.6,2,0.0583,0.0017,62.95,-46.64,44.936,21.089,0.008,0.0174,6.16,246.5,1,0.03,0.0052,29.87,30.41,98.675,56.075,0.0235,0.5436,6.31,246.65,1,0.0285,0.0064,28.16,34.41,100.576,51.31,0.027,0.1553,3.4,243.74,0,0.0,0.0012,61.31,-42.83,44.484,23.832,0.0055,1.3331,4.32,244.66,0,0.0,0.0043,50.83,-18.41,55.272,28.13,0.0135,0.0216,6.07,246.42,1,0.0303,0.0047,30.87,28.09,96.911,51.412,0.0205,0.024,2.43,242.77,0,0.0,0.0025,72.37,-68.59,39.328,16.443,0.012,0.081,2.44,242.78,0,0.0002,0.0025,72.27,-68.35,39.508,16.443,0.012,0.0781,6.76,247.11,1,0.0293,0.0078,23.02,46.38,105.375,61.318,0.027,0.0101,5.9,246.24,1,0.0302,0.0041,32.89,23.37,94.934,53.346,0.019,0.3501,2.32,242.66,0,0.0,0.0012,73.57,-71.4,37.126,16.443,0.006,0.8626,5.01,245.36,1,0.0325,0.0,42.93,81.689,31.491,0.0,0.0,1.45,241.79,0,0.0,0.0,83.49,24.485,10.53,0.0,0.0,0.06,5,5,0.0,3.8
CON8-0,Det,50,9,871.84,402.18,257.21,659.39,0,0.0,0.4545,594.027,586.095,0.733,0.0,216.26,618.45,7,0.3113,0.1923,15.92,50.48,479.908,457.572,0.679,0.2621,223.22,625.4,7,0.3801,0.1601,13.22,58.89,470.715,453.973,0.6575,0.0259,216.61,618.79,7,0.299,0.2015,15.79,50.89,485.254,459.511,0.6795,0.2751,233.87,636.05,5,0.2569,0.2608,9.07,71.77,520.524,499.548,0.7075,0.0261,228.51,630.69,5,0.2406,0.2609,11.16,65.29,548.253,524.881,0.6835,0.0251,230.71,632.9,4,0.1843,0.2934,10.3,67.95,529.851,513.501,0.7065,0.0271,217.84,620.02,7,0.3456,0.1744,15.31,52.38,476.54,456.412,0.665,0.0246,247.28,649.47,2,0.0844,0.4135,3.86,88.0,602.433,594.037,0.7175,0.0373,214.04,616.22,7,0.2973,0.2003,16.78,47.78,486.906,458.767,0.679,0.5893,216.05,618.24,7,0.3051,0.1963,16.0,50.23,483.087,459.072,0.681,0.229,212.77,614.96,6,0.2653,0.1934,17.28,46.26,487.141,461.975,0.673,1.8677,210.16,612.35,6,0.26,0.196,18.29,43.1,490.194,467.273,0.67,0.0215,214.29,616.48,7,0.3017,0.1983,16.69,48.09,485.678,458.623,0.6785,0.0304,208.83,611.01,6,0.2675,0.1977,18.81,41.49,491.431,464.614,0.6725,0.0898,207.7,609.89,6,0.258,0.197,19.25,40.12,490.647,462.556,0.6715,0.0768,215.41,617.59,7,0.3043,0.1975,16.25,49.44,485.683,460.711,0.6815,0.0115,213.43,615.61,7,0.3116,0.1906,17.02,47.05,480.133,456.406,0.671,0.3573,206.91,609.1,6,0.2528,0.1936,19.55,39.17,490.318,459.689,0.6695,0.5797,174.53,576.71,8,0.3568,0.0977,32.14,450.25,422.775,0.5295,0.0,156.33,558.52,0,0.0,0.0,39.22,449.192,421.415,0.0,0.0,0.095,5,9,0.0,4.3
CON8-0,SAA,50,15,1164.19,641.42,17.58,659.0,0,0.0,0.0213,249.788,114.597,0.119,0.0,16.11,657.53,1,0.0101,0.0133,8.38,78.75,217.019,114.746,0.109,0.2213,16.48,657.9,1,0.0126,0.0121,6.24,84.16,218.445,118.33,0.104,0.022,16.11,657.53,1,0.0101,0.0133,8.38,78.75,217.019,114.746,0.109,0.2165,16.45,657.87,1,0.0071,0.0156,6.43,83.7,224.68,117.612,0.1115,0.0342,16.13,657.55,1,0.0063,0.0157,8.26,79.04,222.177,112.0,0.1125,0.0353,16.37,657.79,0,0.0052,0.0167,6.88,82.55,226.11,114.597,0.1145,0.0367,16.31,657.73,1,0.011,0.0129,7.21,81.72,219.487,117.612,0.1065,0.0301,11.35,652.77,3,0.0272,0.0094,35.45,10.09,152.021,76.967,0.0845,0.0257,16.09,657.51,1,0.01,0.0134,8.47,78.51,216.444,118.33,0.1095,0.365,16.12,657.54,1,0.01,0.0133,8.28,79.0,216.591,117.612,0.1095,0.1921,11.71,653.13,0,0.0008,0.0085,33.39,15.31,147.449,79.086,0.083,1.9574,13.05,654.47,0,0.0,0.0092,25.78,34.61,164.452,83.306,0.078,0.0183,16.14,657.55,1,0.0095,0.0138,8.22,79.15,218.588,117.612,0.1095,0.0254,11.07,652.49,0,0.0008,0.0074,37.04,6.06,140.682,77.004,0.0755,0.0729,10.93,652.35,0,0.0006,0.0074,37.81,4.1,137.512,77.722,0.0775,0.0528,17.26,658.68,1,0.0063,0.0171,1.82,95.39,235.303,134.705,0.111,0.0112,15.91,657.33,1,0.0096,0.0135,9.49,75.93,214.106,114.149,0.1085,0.3517,10.35,651.77,0,0.0002,0.0069,41.13,-4.33,132.073,77.55,0.0745,0.4823,10.65,652.07,2,0.0213,0.0,39.42,151.186,71.394,0.0,0.0,4.29,645.71,0,0.0,0.0,75.6,66.055,33.778,0.0,0.0,0.098,14,15,0.0,4.0
CON3-8,Det,50,4,523.05,192.3,86.86,279.17,0,0.0,0.2466,233.22,196.102,0.5425,0.0,61.02,253.32,2,0.2214,0.0526,29.75,31.3,181.187,150.39,0.1875,0.2313,66.2,258.5,2,0.2965,0.0229,23.79,45.07,176.011,146.465,0.082,0.0213,60.36,252.67,2,0.2204,0.0514,30.51,29.56,181.834,151.442,0.181,0.2266,65.73,258.03,2,0.2509,0.0491,24.33,43.82,188.113,152.077,0.1665,0.0188,70.06,262.37,2,0.166,0.1075,19.34,55.35,219.905,195.85,0.3185,0.0186,73.69,265.99,1,0.123,0.1363,15.17,64.98,212.417,193.797,0.465,0.0186,64.13,256.44,2,0.2805,0.0259,26.17,39.58,174.224,146.465,0.0935,0.0217,85.32,277.62,1,0.0249,0.2304,1.78,95.89,218.383,207.112,0.532,0.0235,59.8,252.1,2,0.2305,0.0441,31.16,28.06,180.813,148.435,0.1565,1.0127,60.29,252.59,2,0.2205,0.0511,30.59,29.36,181.49,151.442,0.1815,0.1728,59.25,251.56,2,0.2119,0.0483,31.79,26.61,170.924,149.806,0.1725,1.4981,59.72,252.02,2,0.2099,0.0422,31.25,27.84,168.913,151.886,0.153,0.0308,59.77,252.08,2,0.2345,0.0417,31.19,27.99,181.081,148.435,0.146,0.0271,58.49,250.79,2,0.2184,0.0429,32.66,24.58,172.453,148.492,0.1495,0.1008,58.14,250.44,2,0.201,0.0456,33.07,23.65,173.964,151.442,0.1595,0.107,60.47,252.78,2,0.2408,0.0404,30.38,29.85,180.883,151.442,0.1435,0.0115,59.3,251.61,2,0.2316,0.0424,31.73,26.74,180.168,147.742,0.147,0.3524,57.48,249.79,2,0.1995,0.0415,33.82,21.9,172.521,151.464,0.1445,1.0777,49.24,241.55,2,0.2289,0.0177,43.31,169.577,145.348,0.0635,0.0,43.92,236.22,0,0.0,0.0,49.44,159.148,145.348,0.0,0.0,0.064,3,4,0.0,4.8
CON3-8,SAA,50,5,624.76,237.48,9.07,246.54,0,0.0,0.0317,151.102,58.682,0.078,0.0,7.12,244.6,1,0.0289,0.0056,21.44,49.0,116.929,53.55,0.0255,0.2346,8.95,246.42,2,0.0402,0.0025,1.35,96.79,127.202,75.031,0.0115,0.0221,7.12,244.6,1,0.0289,0.0056,21.44,49.0,116.929,53.55,0.0255,0.2325,7.52,244.99,1,0.0161,0.0167,17.08,59.38,126.187,55.363,0.054,0.018,7.81,245.28,0,0.0135,0.0193,13.9,66.93,129.015,58.682,0.062,0.0197,7.87,245.35,1,0.0176,0.0169,13.15,68.71,126.928,58.682,0.059,0.0199,7.76,245.24,1,0.0349,0.0034,14.38,65.8,121.377,61.66,0.016,0.0227,4.3,241.78,2,0.0381,0.007,52.54,-24.97,72.477,24.568,0.0305,0.0202,6.36,243.83,1,0.0282,0.0057,29.87,28.94,105.918,52.518,0.025,0.5178,6.45,243.93,1,0.0259,0.007,28.85,31.37,107.675,53.28,0.031,0.1724,4.28,241.76,0,0.002,0.0056,52.77,-25.54,70.599,24.457,0.025,1.4915,4.91,242.39,0,0.0,0.0043,45.84,-9.05,67.674,37.242,0.0145,0.0238,6.41,243.88,1,0.0273,0.0064,29.33,30.24,106.545,52.556,0.0275,0.0266,3.23,240.71,0,0.0,0.0041,64.37,-53.12,56.468,23.076,0.0205,0.0861,3.26,240.74,0,0.0,0.0043,64.01,-52.27,57.104,23.076,0.0205,0.0821,7.57,245.04,1,0.0177,0.0156,16.56,60.6,123.416,53.28,0.0555,0.0121,6.23,243.7,1,0.0294,0.0043,31.32,25.49,102.199,52.179,0.02,0.404,3.09,240.57,0,0.0,0.0023,65.91,-56.79,52.089,22.824,0.011,0.9337,5.26,242.73,1,0.0317,0.0,42.04,87.321,34.835,0.0,0.0,1.9,239.37,0,0.0,0.0,79.09,32.766,14.817,0.0,0.0,0.063,5,5,0.0,4.1
