Instance,Plan,N_cust,K_routes,Travel_km,Fixed_cost,none_rec,none_TBC,none_S,none_HO,none_fail,none_cvar95,none_p95,none_pem,none_fit_s,v1_end_rec,v1_end_TBC,v1_end_S,v1_end_HO,v1_end_fail,v1_end_saving,v1_end_gap,v1_end_cvar95,v1_end_p95,v1_end_pem,v1_end_fit_s,v1_myo_rec,v1_myo_TBC,v1_myo_S,v1_myo_HO,v1_myo_fail,v1_myo_saving,v1_myo_gap,v1_myo_cvar95,v1_myo_p95,v1_myo_pem,v1_myo_fit_s,fb_tau_rec,fb_tau_TBC,fb_tau_S,fb_tau_HO,fb_tau_fail,fb_tau_saving,fb_tau_gap,fb_tau_cvar95,fb_tau_p95,fb_tau_pem,fb_tau_fit_s,pi1_rec,pi1_TBC,pi1_S,pi1_HO,pi1_fail,pi1_saving,pi1_gap,pi1_cvar95,pi1_p95,pi1_pem,pi1_fit_s,pi2_rec,pi2_TBC,pi2_S,pi2_HO,pi2_fail,pi2_saving,pi2_gap,pi2_cvar95,pi2_p95,pi2_pem,pi2_fit_s,pi3_rec,pi3_TBC,pi3_S,pi3_HO,pi3_fail,pi3_saving,pi3_gap,pi3_cvar95,pi3_p95,pi3_pem,pi3_fit_s,rollout_rec,rollout_TBC,rollout_S,rollout_HO,rollout_fail,rollout_saving,rollout_gap,rollout_cvar95,rollout_p95,rollout_pem,rollout_fit_s,restock_rec,restock_TBC,restock_S,restock_HO,restock_fail,restock_saving,restock_gap,restock_cvar95,restock_p95,restock_pem,restock_fit_s,thr_k_rec,thr_k_TBC,thr_k_S,thr_k_HO,thr_k_fail,thr_k_saving,thr_k_gap,thr_k_cvar95,thr_k_p95,thr_k_pem,thr_k_fit_s,ro_theta_rec,ro_theta_TBC,ro_theta_S,ro_theta_HO,ro_theta_fail,ro_theta_saving,ro_theta_gap,ro_theta_cvar95,ro_theta_p95,ro_theta_pem,ro_theta_fit_s,thr2_rec,thr2_TBC,thr2_S,thr2_HO,thr2_fail,thr2_saving,thr2_gap,thr2_cvar95,thr2_p95,thr2_pem,thr2_fit_s,dp3_n_rec,dp3_n_TBC,dp3_n_S,dp3_n_HO,dp3_n_fail,dp3_n_saving,dp3_n_gap,dp3_n_cvar95,dp3_n_p95,dp3_n_pem,dp3_n_fit_s,v2_lsm_rec,v2_lsm_TBC,v2_lsm_S,v2_lsm_HO,v2_lsm_fail,v2_lsm_saving,v2_lsm_gap,v2_lsm_cvar95,v2_lsm_p95,v2_lsm_pem,v2_lsm_fit_s,v2_act_rec,v2_act_TBC,v2_act_S,v2_act_HO,v2_act_fail,v2_act_saving,v2_act_gap,v2_act_cvar95,v2_act_p95,v2_act_pem,v2_act_fit_s,v2_cf_rec,v2_cf_TBC,v2_cf_S,v2_cf_HO,v2_cf_fail,v2_cf_saving,v2_cf_gap,v2_cf_cvar95,v2_cf_p95,v2_cf_pem,v2_cf_fit_s,dp_n_rec,dp_n_TBC,dp_n_S,dp_n_HO,dp_n_fail,dp_n_saving,dp_n_gap,dp_n_cvar95,dp_n_p95,dp_n_pem,dp_n_fit_s,dp_xl_rec,dp_xl_TBC,dp_xl_S,dp_xl_HO,dp_xl_fail,dp_xl_saving,dp_xl_gap,dp_xl_cvar95,dp_xl_p95,dp_xl_pem,dp_xl_fit_s,dp_xl3_rec,dp_xl3_TBC,dp_xl3_S,dp_xl3_HO,dp_xl3_fail,dp_xl3_saving,dp_xl3_gap,dp_xl3_cvar95,dp_xl3_p95,dp_xl3_pem,dp_xl3_fit_s,oracle_rec,oracle_TBC,oracle_S,oracle_HO,oracle_fail,oracle_saving,oracle_cvar95,oracle_p95,oracle_pem,oracle_fit_s,oracle3_rec,oracle3_TBC,oracle3_S,oracle3_HO,oracle3_fail,oracle3_saving,oracle3_cvar95,oracle3_p95,oracle3_pem,oracle3_fit_s,online_us,act_routes,n_routes,solve_s,eval_s
CON3-2,Det,50,4,523.46,192.35,139.26,331.6,0,0.0,0.3103,386.678,383.365,0.5395,0.0,88.39,280.74,3,0.2781,0.0821,36.52,27.53,269.415,220.005,0.2895,0.2532,107.13,299.47,3,0.43,0.056,23.07,54.22,236.675,220.005,0.2155,0.0208,87.54,279.88,3,0.281,0.0784,37.14,26.31,265.49,220.005,0.281,0.2341,94.08,286.42,3,0.2818,0.0966,32.44,35.62,301.571,248.032,0.318,0.0171,110.26,302.6,3,0.2112,0.1537,20.83,58.68,386.678,383.365,0.335,0.018,102.71,295.06,2,0.1956,0.1422,26.24,47.93,324.332,310.708,0.3905,0.0185,100.05,292.39,3,0.3901,0.0576,28.15,44.14,238.892,220.005,0.2205,0.0214,137.18,329.53,1,0.0274,0.2943,1.49,97.04,396.614,387.873,0.5285,0.0231,85.06,277.41,3,0.2732,0.0777,38.92,22.78,276.423,220.005,0.2725,1.1696,88.42,280.76,3,0.2859,0.0789,36.51,27.56,270.148,220.005,0.2795,0.1708,87.67,280.02,3,0.2845,0.0767,37.04,26.5,265.941,220.005,0.2755,1.7038,86.82,279.16,3,0.2784,0.0731,37.65,25.29,276.787,218.877,0.257,0.0672,85.29,277.64,3,0.2745,0.0776,38.75,23.11,278.235,220.005,0.271,0.0266,85.08,277.43,3,0.2709,0.0779,38.9,22.81,278.235,220.005,0.272,0.1048,84.49,276.84,3,0.26,0.0787,39.32,21.97,278.235,220.005,0.276,0.1206,86.07,278.42,3,0.2904,0.0726,38.19,24.22,274.221,220.005,0.254,0.0107,84.56,276.9,3,0.2796,0.0741,39.28,22.06,270.405,218.877,0.2625,0.3212,84.14,276.49,3,0.2707,0.0735,39.58,21.47,269.451,218.877,0.26,1.0716,69.07,261.42,3,0.2569,0.0534,50.4,229.833,218.022,0.208,0.0,66.01,258.35,0,0.0,0.0,52.6,229.833,218.022,0.0,0.0,0.072,3,4,0.0,5.2
CON3-2,SAA,50,5,570.07,232.01,9.66,241.67,0,0.0,0.0236,182.01,79.717,0.0575,0.0,6.39,238.4,1,0.0284,0.0025,33.81,41.77,110.653,44.153,0.012,0.2188,9.24,241.25,2,0.0448,0.001,4.35,92.51,130.303,77.495,0.005,0.0211,6.39,238.4,1,0.0284,0.0025,33.81,41.77,110.653,44.153,0.012,0.2283,7.21,239.21,1,0.0226,0.0081,25.39,56.28,130.949,38.264,0.03,0.0168,6.27,238.28,1,0.0208,0.0065,35.08,39.59,114.346,38.264,0.021,0.0184,6.88,238.88,1,0.0161,0.0099,28.8,50.39,129.369,39.503,0.0305,0.0183,8.38,240.39,1,0.0406,0.0011,13.26,77.16,122.55,72.84,0.0055,0.0216,3.31,235.32,2,0.0525,0.0011,65.7,-13.15,47.359,21.35,0.0055,0.0192,5.52,237.53,1,0.0234,0.0036,42.85,26.2,100.138,38.326,0.016,0.4837,5.68,237.69,1,0.0255,0.0028,41.22,29.02,100.406,39.503,0.0135,0.1698,3.39,235.39,0,0.0,0.0022,64.95,-11.85,53.056,21.026,0.009,1.4477,5.93,237.93,0,0.0,0.0035,38.65,33.44,76.207,39.206,0.01,0.023,5.55,237.56,1,0.0231,0.0038,42.5,26.8,100.813,38.264,0.0165,0.0272,2.42,234.42,0,0.0,0.0017,74.98,-29.13,44.132,11.727,0.0075,0.0846,2.56,234.57,0,0.0001,0.0021,73.46,-26.5,47.08,11.727,0.008,0.0799,6.73,238.74,1,0.0238,0.0063,30.32,47.78,117.997,38.264,0.02,0.0109,5.22,237.23,1,0.0253,0.002,45.97,20.83,94.248,38.326,0.0095,0.3604,2.25,234.26,0,0.0,0.0006,76.71,-32.1,39.23,15.531,0.003,0.9285,4.05,236.06,1,0.0236,0.0,58.07,76.497,31.567,0.0,0.0,1.33,233.34,0,0.0,0.0,86.22,25.455,9.684,0.0,0.0,0.057,5,5,0.0,4.0
CON3-3,Det,50,4,607.67,200.77,159.47,360.23,0,0.0,0.3615,382.937,376.509,0.5735,0.0,81.95,282.71,3,0.3586,0.0371,48.61,20.05,218.631,183.955,0.135,0.239,110.12,310.88,3,0.5353,0.0055,30.95,49.1,181.279,151.079,0.0215,0.0218,80.93,281.7,3,0.3509,0.0419,49.25,19.0,226.757,197.259,0.1525,0.233,86.85,287.62,3,0.4213,0.0262,45.54,25.11,241.654,212.245,0.096,0.0165,98.37,299.14,3,0.3421,0.0891,38.31,36.99,301.626,289.032,0.271,0.0174,83.41,284.18,3,0.3599,0.0411,47.69,21.56,233.352,211.925,0.1485,0.0165,99.26,300.03,3,0.4875,0.0069,37.75,37.91,183.861,151.079,0.027,0.0203,150.69,351.46,1,0.0605,0.3196,5.5,90.95,402.297,392.081,0.528,0.024,77.64,278.4,3,0.3802,0.0231,51.31,15.61,222.943,188.665,0.085,1.2099,79.99,280.75,3,0.3416,0.0455,49.84,18.03,226.219,202.035,0.1645,0.1674,79.0,279.77,3,0.3494,0.0249,50.46,17.02,214.623,182.923,0.093,1.4602,76.23,277.0,3,0.3199,0.0282,52.2,14.16,232.622,199.267,0.1045,0.0281,77.31,278.08,3,0.3807,0.0221,51.52,15.27,222.11,182.476,0.0815,0.0276,76.65,277.42,3,0.3662,0.0241,51.93,14.59,221.258,181.308,0.0905,0.1044,74.33,275.1,3,0.3095,0.0284,53.39,12.2,225.665,194.142,0.106,0.1135,77.98,278.75,3,0.3891,0.0204,51.1,15.96,222.897,184.611,0.076,0.0126,77.08,277.84,3,0.3771,0.023,51.67,15.03,219.433,180.976,0.086,0.3028,74.04,274.81,3,0.3121,0.0268,53.57,11.89,222.934,192.134,0.101,0.9936,62.51,263.27,3,0.3583,0.0032,60.8,163.681,142.799,0.0125,0.0,53.93,254.7,0,0.0,0.0,66.18,163.599,142.799,0.0,0.0,0.065,3,4,0.0,4.8
CON3-3,SAA,50,5,713.82,246.38,22.11,268.49,0,0.0,0.0568,326.487,160.538,0.106,0.0,14.09,260.48,2,0.0494,0.0133,36.26,38.22,190.627,128.931,0.054,0.2423,22.93,269.32,4,0.1057,0.0023,-3.72,106.33,207.826,169.673,0.011,0.0224,14.09,260.48,2,0.0494,0.0133,36.26,38.22,190.627,128.931,0.054,0.2337,15.62,262.0,2,0.0615,0.0143,29.37,49.96,191.317,127.578,0.0555,0.0207,13.94,260.32,2,0.0522,0.0142,36.97,37.01,195.031,125.594,0.049,0.0275,13.28,259.66,2,0.0528,0.0107,39.95,31.94,179.708,120.149,0.0465,0.0233,18.26,264.64,4,0.0861,0.003,17.42,70.32,195.819,156.556,0.0135,0.0277,7.16,253.54,4,0.0992,0.0059,67.62,-15.21,95.733,40.908,0.018,0.0287,12.79,259.17,3,0.0571,0.009,42.16,28.16,172.319,112.234,0.037,0.5095,13.49,259.88,2,0.0473,0.0141,38.98,33.6,183.626,116.083,0.0565,0.2098,6.37,252.75,0,0.0,0.003,71.2,-21.3,78.301,42.674,0.0135,1.638,6.86,253.25,0,0.0,0.0052,68.96,-17.49,90.894,45.885,0.0155,0.0273,12.78,259.17,2,0.0564,0.0093,42.18,28.13,171.998,112.234,0.0385,0.027,5.8,252.18,0,0.0,0.006,73.76,-25.66,86.904,37.355,0.0205,0.0928,5.99,252.37,0,0.002,0.0059,72.9,-24.21,90.829,37.763,0.023,0.0948,13.32,259.7,3,0.0562,0.0101,39.75,32.28,179.707,113.085,0.0415,0.0116,12.52,258.9,3,0.0592,0.0072,43.38,26.1,166.075,106.24,0.0315,0.4129,5.21,251.6,0,0.0,0.0031,76.42,-30.2,72.671,36.415,0.012,0.9957,9.13,255.52,2,0.0568,0.0,58.69,134.593,66.626,0.0,0.0,2.82,249.2,0,0.0,0.0,87.26,42.968,21.712,0.0,0.0,0.07,5,5,0.0,4.4
CON3-0,Det,50,4,617.59,201.76,122.03,323.79,0,0.0,0.2548,353.69,264.858,0.5765,0.0,96.05,297.81,2,0.1688,0.111,21.29,34.29,255.905,233.477,0.416,0.2286,114.52,316.28,2,0.2785,0.0895,6.15,81.01,264.642,245.482,0.3575,0.0222,94.96,296.72,2,0.168,0.1087,22.18,31.55,255.767,231.822,0.4105,0.2318,98.26,300.02,2,0.1872,0.1139,19.48,39.87,272.45,230.259,0.413,0.0182,97.83,299.59,2,0.1811,0.1186,19.83,38.81,288.723,235.106,0.4175,0.0182,99.25,301.01,2,0.1224,0.1419,18.67,42.39,296.963,231.431,0.4805,0.0175,105.47,307.23,2,0.2411,0.0909,13.57,58.13,262.488,244.205,0.362,0.0212,106.46,308.22,1,0.0907,0.1926,12.75,60.64,292.621,265.862,0.5535,0.0226,92.1,293.86,2,0.1811,0.1034,24.53,24.3,257.991,231.391,0.389,1.0109,92.35,294.11,2,0.1634,0.1106,24.32,24.93,253.886,232.335,0.4065,0.1752,89.54,291.3,1,0.0609,0.1079,26.63,17.82,284.282,231.94,0.387,1.498,87.8,289.56,1,0.0819,0.1092,28.05,13.43,269.403,222.449,0.3915,0.0254,91.74,293.5,2,0.1806,0.1026,24.82,23.41,255.289,231.186,0.39,0.0287,88.75,290.51,1,0.0542,0.12,27.27,15.85,287.203,258.849,0.399,0.1002,85.78,287.54,1,0.0777,0.1094,29.71,8.32,252.066,219.753,0.396,0.1046,93.03,294.79,2,0.1845,0.1047,23.77,26.65,274.427,231.76,0.386,0.0103,90.53,292.29,2,0.1787,0.0995,25.81,20.33,248.572,206.657,0.3865,0.3239,84.98,286.74,1,0.0814,0.1036,30.36,6.29,237.898,210.103,0.391,0.9417,82.49,284.25,2,0.1658,0.089,32.4,233.564,199.352,0.356,0.0,73.96,275.72,0,0.0,0.0,39.39,210.209,196.998,0.0,0.0,0.069,3,4,0.0,4.6
CON3-0,SAA,50,5,700.38,245.04,16.4,261.44,0,0.0,0.038,292.605,107.818,0.0725,0.0,9.79,254.83,1,0.0371,0.0058,40.3,30.15,162.938,79.312,0.0275,0.3091,15.05,260.08,3,0.0688,0.0013,8.28,85.64,180.089,123.177,0.0065,0.0285,9.85,254.89,1,0.0381,0.0053,39.93,30.8,162.259,79.312,0.025,0.3074,13.32,258.36,1,0.0229,0.0205,18.78,67.46,230.641,98.652,0.055,0.0195,11.09,256.13,1,0.0334,0.0117,32.4,43.84,187.137,88.682,0.0445,0.0214,11.97,257.01,1,0.0255,0.0163,27.0,53.21,206.827,107.571,0.0605,0.0217,12.17,257.2,2,0.0564,0.0016,25.83,55.23,169.686,95.294,0.008,0.0274,7.3,252.33,3,0.0815,0.0053,55.52,3.78,96.695,38.321,0.0225,0.0229,9.39,254.42,1,0.0388,0.0047,42.79,25.84,156.846,75.341,0.0225,0.8068,9.77,254.8,1,0.038,0.0052,40.47,29.86,161.496,78.752,0.0245,0.2059,6.83,251.87,0,0.006,0.0041,58.38,-1.18,106.128,42.463,0.02,2.0121,6.8,251.84,0,0.0,0.0033,58.56,-1.5,89.618,47.485,0.0115,0.027,9.33,254.37,1,0.0386,0.0047,43.12,25.26,157.197,72.87,0.022,0.034,4.7,249.74,0,0.0,0.0039,71.36,-23.68,81.129,26.58,0.0185,0.1277,4.7,249.74,0,0.0,0.0039,71.36,-23.68,81.129,26.58,0.0185,0.1173,11.33,256.37,2,0.0425,0.0072,30.9,46.44,180.818,85.685,0.031,0.0129,8.97,254.01,2,0.0391,0.0038,45.32,21.46,150.065,75.081,0.018,0.4362,4.11,249.15,0,0.0008,0.0016,74.95,-29.9,66.025,26.565,0.0075,1.0635,6.94,251.98,1,0.038,0.0,57.7,123.771,46.462,0.0,0.0,2.33,247.37,0,0.0,0.0,85.77,42.345,16.518,0.0,0.0,0.081,5,5,0.0,5.3
CON3-1,Det,50,4,554.47,195.45,153.92,349.36,0,0.0,0.3448,385.951,374.107,0.5775,0.0,95.45,290.9,3,0.316,0.0784,37.98,25.43,263.967,235.73,0.281,0.2731,111.49,306.94,3,0.4455,0.0512,27.56,45.88,255.086,235.73,0.19,0.025,93.89,289.33,3,0.2991,0.0825,39.0,23.43,264.682,235.73,0.295,0.2533,97.65,293.1,3,0.3661,0.0644,36.55,28.24,262.832,234.352,0.235,0.0223,106.4,301.85,3,0.2781,0.1186,30.87,39.4,373.465,313.524,0.3195,0.0204,96.9,292.35,3,0.3094,0.0836,37.04,27.28,317.697,236.806,0.272,0.0199,104.48,299.93,3,0.4121,0.0519,32.12,36.95,255.292,235.73,0.192,0.024,149.3,344.75,1,0.0454,0.3137,3.0,94.12,404.699,391.265,0.547,0.0282,91.4,286.85,3,0.3179,0.0714,40.61,20.27,268.136,233.954,0.2535,1.162,93.81,289.26,3,0.3036,0.0801,39.05,23.33,264.329,235.73,0.2875,0.1968,92.41,287.86,3,0.287,0.077,39.96,21.55,263.089,235.331,0.2795,1.699,90.26,285.71,3,0.3075,0.0634,41.35,18.81,261.366,234.352,0.231,0.0275,91.24,286.68,3,0.3201,0.0699,40.72,20.05,267.766,233.954,0.249,0.0305,89.91,285.36,3,0.2869,0.0721,41.58,18.36,268.699,233.954,0.2565,0.109,89.65,285.09,3,0.294,0.0694,41.76,18.03,267.021,233.954,0.2495,0.1213,91.68,287.13,3,0.3357,0.0638,40.43,20.62,259.689,233.954,0.2325,0.0113,90.86,286.3,3,0.3226,0.0675,40.97,19.57,260.208,234.352,0.2445,0.3427,88.54,283.99,3,0.2825,0.068,42.47,16.62,260.282,233.954,0.2475,0.9219,75.52,270.96,3,0.2958,0.049,50.94,251.753,228.682,0.181,0.0,70.55,266.0,0,0.0,0.0,54.16,251.753,228.682,0.0,0.0,0.069,4,4,0.0,5.1
CON3-1,SAA,50,5,616.97,236.7,15.25,251.95,0,0.0,0.0376,270.997,87.817,0.0725,0.0,8.88,245.58,1,0.0386,0.0046,41.77,29.14,146.608,72.583,0.0225,0.2732,12.89,249.59,3,0.0629,0.0007,15.5,73.71,165.192,113.851,0.0035,0.0248,8.79,245.48,1,0.0394,0.004,42.39,28.09,145.403,71.456,0.0195,0.3108,11.28,247.97,1,0.0377,0.0121,26.08,55.77,176.7,87.817,0.043,0.0195,10.78,247.48,1,0.0232,0.0169,29.29,50.31,191.259,72.643,0.048,0.0214,11.47,248.17,1,0.0203,0.0193,24.81,57.91,201.479,87.817,0.0625,0.0204,11.12,247.82,2,0.0558,0.0007,27.1,54.04,154.575,85.409,0.0035,0.026,5.07,241.77,3,0.0702,0.0035,66.75,-13.23,73.961,29.755,0.0135,0.0211,8.52,245.22,2,0.0414,0.0036,44.11,25.17,140.02,66.172,0.016,0.7708,8.57,245.27,1,0.0367,0.0054,43.82,25.67,145.862,68.83,0.026,0.1913,5.06,241.76,0,0.0,0.0022,66.81,-13.33,69.451,31.179,0.008,1.9108,6.76,243.46,0,0.0,0.002,55.65,5.6,85.83,51.066,0.007,0.0291,8.36,245.06,1,0.04,0.0038,45.2,23.33,139.126,66.042,0.017,0.0381,3.86,240.56,0,0.0,0.0025,74.7,-26.71,64.353,24.872,0.01,0.1299,3.92,240.62,0,0.0007,0.0024,74.28,-26.01,65.612,24.872,0.0095,0.1179,10.58,247.28,1,0.0379,0.0092,30.65,48.01,172.282,74.263,0.037,0.0127,7.87,244.57,1,0.0366,0.004,48.39,17.92,136.347,61.078,0.019,0.422,3.62,240.32,0,0.0,0.0014,76.24,-29.33,59.338,24.191,0.006,1.2355,6.26,242.96,1,0.0376,0.0,58.95,111.21,36.208,0.0,0.0,2.19,238.89,0,0.0,0.0,85.61,40.185,16.018,0.0,0.0,0.108,5,5,0.0,5.3
CON3-5,Det,50,4,593.84,199.38,181.12,380.5,0,0.0,0.3596,403.55,401.065,0.5915,0.0,121.58,320.97,3,0.3559,0.1019,32.87,33.27,336.442,329.167,0.316,0.2823,127.03,326.42,3,0.4377,0.0795,29.86,39.39,329.167,329.167,0.2535,0.0253,120.39,319.78,3,0.3578,0.0975,33.53,31.94,333.066,328.657,0.307,0.2682,130.33,329.72,3,0.4261,0.0921,28.04,43.08,332.418,328.657,0.286,0.0197,127.19,326.58,3,0.346,0.1175,29.77,39.56,343.715,328.657,0.3445,0.0218,160.82,360.2,1,0.2009,0.2348,11.21,77.25,331.333,329.167,0.5535,0.0197,125.07,324.45,3,0.4244,0.0814,30.95,37.18,329.167,329.167,0.2585,0.0234,176.44,375.82,1,0.0683,0.3245,2.58,94.75,422.528,414.949,0.5515,0.0271,119.93,319.31,3,0.3329,0.1074,33.78,31.42,332.806,328.657,0.3325,1.4871,120.67,320.05,3,0.3265,0.1109,33.38,32.25,335.813,329.167,0.3415,0.1944,119.77,319.16,3,0.346,0.0995,33.87,31.25,335.813,329.167,0.308,1.6625,119.99,319.37,3,0.3331,0.0996,33.75,31.49,332.295,328.657,0.31,0.03,119.0,318.39,3,0.3481,0.0993,34.3,30.38,332.042,328.657,0.3095,0.0273,118.64,318.02,3,0.3441,0.099,34.5,29.98,332.042,328.657,0.3085,0.1272,118.46,317.84,3,0.3326,0.1001,34.6,29.77,332.949,328.657,0.3125,0.1584,120.38,319.76,3,0.3474,0.1023,33.54,31.92,333.421,328.657,0.3135,0.0115,118.75,318.14,3,0.3534,0.0966,34.43,30.1,331.098,328.657,0.2995,0.326,118.85,318.23,3,0.3346,0.1008,34.38,30.21,334.811,328.657,0.3115,1.1057,91.89,291.28,3,0.2893,0.0704,49.26,328.557,325.78,0.226,0.0,86.61,285.99,0,0.0,0.0,52.18,328.505,325.78,0.0,0.0,0.074,4,4,0.0,5.6
CON3-5,SAA,50,5,630.37,238.04,9.05,247.09,0,0.0,0.022,171.751,71.838,0.0565,0.0,6.07,244.11,1,0.0254,0.0031,32.94,44.1,106.767,44.486,0.014,0.2367,9.72,247.76,2,0.0456,0.0007,-7.39,112.54,127.222,83.605,0.0035,0.0218,6.07,244.11,1,0.0254,0.0031,32.94,44.1,106.767,44.486,0.014,0.2264,6.33,244.37,1,0.0172,0.008,30.02,49.04,116.058,33.812,0.0285,0.0183,6.5,244.54,1,0.0168,0.0087,28.14,52.24,118.976,31.864,0.029,0.0198,6.93,244.97,0,0.0127,0.0114,23.41,60.27,131.048,29.476,0.036,0.0177,8.05,246.09,2,0.0395,0.0008,11.03,81.28,116.902,64.453,0.004,0.0226,3.99,242.03,2,0.0548,0.0028,55.92,5.09,59.242,22.572,0.0125,0.0191,5.38,243.42,1,0.0234,0.0032,40.57,31.14,95.743,36.492,0.014,0.5278,5.41,243.45,1,0.0215,0.0039,40.25,31.69,97.6,34.547,0.0165,0.1702,3.8,241.84,0,0.0068,0.0022,58.03,1.51,63.74,25.081,0.011,1.4137,4.82,242.86,0,0.0,0.0025,46.7,20.74,63.169,33.441,0.009,0.0225,5.23,243.27,1,0.0224,0.0033,42.16,28.44,93.678,31.67,0.0145,0.0238,2.74,240.77,0,0.0,0.0025,69.76,-18.4,50.014,13.497,0.0115,0.085,2.73,240.77,0,0.0,0.0025,69.82,-18.51,49.896,13.497,0.0115,0.0827,6.38,244.42,1,0.0266,0.0037,29.47,49.99,108.64,50.802,0.0145,0.0114,5.03,243.07,1,0.0243,0.002,44.38,24.67,89.728,31.67,0.009,0.3754,2.38,240.42,0,0.0,0.0015,73.68,-25.06,43.425,12.931,0.0075,0.9028,3.72,241.76,1,0.022,0.0,58.92,70.567,29.46,0.0,0.0,1.26,239.29,0,0.0,0.0,86.12,24.421,5.838,0.0,0.0,0.072,5,5,0.0,4.0
CON3-4,Det,50,4,599.73,199.97,189.58,389.55,0,0.0,0.38,407.27,404.937,0.6,0.0,102.24,302.22,3,0.4105,0.044,46.07,25.14,270.283,244.239,0.158,0.2424,111.5,311.48,3,0.5321,0.0106,41.19,33.07,215.81,149.822,0.039,0.0202,101.23,301.2,3,0.4253,0.0355,46.6,24.27,262.598,221.743,0.1285,0.2268,105.68,305.65,3,0.4869,0.0201,44.26,28.08,246.336,217.852,0.075,0.0208,121.83,321.8,3,0.4114,0.0789,35.74,41.92,340.076,298.236,0.2555,0.0206,138.51,338.48,2,0.289,0.1457,26.94,56.22,334.277,307.855,0.5075,0.0194,105.49,305.46,3,0.4987,0.0131,44.36,27.92,225.813,149.822,0.0485,0.0227,186.65,386.62,1,0.0204,0.3652,1.55,97.49,418.947,414.628,0.5965,0.0266,99.24,299.21,3,0.4228,0.0339,47.65,22.56,251.198,218.094,0.125,1.2883,101.6,301.58,3,0.4088,0.0438,46.41,24.59,269.382,245.666,0.158,0.1867,100.6,300.58,3,0.4185,0.0324,46.93,23.73,260.114,221.743,0.1175,1.7228,101.81,301.78,3,0.4253,0.0318,46.3,24.76,249.16,218.043,0.1185,0.0312,98.85,298.82,3,0.4305,0.0296,47.86,22.23,247.207,217.854,0.1105,0.0256,98.9,298.88,3,0.4276,0.0309,47.83,22.27,247.6,217.906,0.115,0.1269,97.87,297.85,3,0.4121,0.0296,48.37,21.39,246.908,217.913,0.1095,0.1329,99.55,299.53,3,0.4326,0.03,47.49,22.83,252.526,218.043,0.11,0.0116,98.36,298.33,3,0.4229,0.0311,48.12,21.81,250.305,217.279,0.1145,0.334,97.77,297.75,3,0.4029,0.0326,48.43,21.31,254.349,218.043,0.119,1.1231,72.92,272.89,3,0.375,0.005,61.54,180.853,149.507,0.0175,0.0,67.37,267.34,0,0.0,0.0,64.47,180.372,149.507,0.0,0.0,0.075,3,4,0.0,5.4
CON3-4,SAA,50,5,650.56,240.06,11.08,251.14,0,0.0,0.0289,199.601,74.463,0.065,0.0,7.65,247.71,1,0.0274,0.0064,30.94,46.98,130.719,64.97,0.029,0.2726,10.67,250.73,2,0.0481,0.0023,3.71,93.64,145.264,85.939,0.0115,0.0256,7.54,247.59,1,0.0277,0.006,31.99,45.18,128.939,64.97,0.0275,0.2622,8.51,248.57,1,0.0187,0.0142,23.22,60.2,152.538,72.779,0.052,0.0197,8.24,248.3,0,0.016,0.0147,25.65,56.04,151.411,65.375,0.0455,0.0217,8.91,248.96,0,0.0117,0.0182,19.65,66.33,161.721,74.356,0.055,0.0211,9.26,249.32,2,0.0407,0.0033,16.41,71.88,138.536,77.328,0.016,0.0262,4.04,244.1,2,0.0623,0.0025,63.56,-8.91,56.321,23.939,0.012,0.0217,6.84,246.9,1,0.0272,0.0063,38.25,34.45,121.263,61.793,0.029,0.649,7.05,247.1,1,0.0257,0.0072,36.41,37.6,124.69,62.602,0.0325,0.1923,4.21,244.27,0,0.0,0.0052,61.98,-6.21,71.42,22.541,0.024,1.6435,5.96,246.02,0,0.0,0.0064,46.19,20.86,85.684,30.746,0.0185,0.0262,6.84,246.89,1,0.0263,0.0067,38.31,34.35,120.867,61.372,0.0275,0.0313,3.11,243.17,0,0.0,0.0037,71.91,-23.22,55.594,15.934,0.0155,0.1,3.11,243.17,0,0.0,0.0037,71.91,-23.22,55.594,15.934,0.0155,0.0979,8.62,248.68,2,0.0364,0.0068,22.21,61.94,137.311,66.479,0.024,0.0125,6.45,246.5,1,0.0308,0.0036,41.82,28.34,111.819,41.779,0.0175,0.4334,2.42,242.48,0,0.0,0.001,78.15,-33.92,41.055,16.193,0.005,0.9973,4.62,244.67,1,0.0289,0.0,58.36,83.126,32.55,0.0,0.0,1.34,241.4,0,0.0,0.0,87.89,24.713,8.07,0.0,0.0,0.074,5,5,0.0,4.6
CON3-7,Det,50,4,586.71,198.67,143.8,342.47,0,0.0,0.3134,394.001,383.514,0.5485,0.0,80.6,279.27,3,0.3493,0.0291,43.95,27.77,220.925,195.356,0.11,0.2263,94.42,293.09,3,0.4547,0.0091,34.34,43.57,191.372,147.589,0.0365,0.0191,79.78,278.45,3,0.3168,0.042,44.52,26.84,234.15,216.12,0.1535,0.2128,85.43,284.11,3,0.3552,0.0375,40.59,33.3,237.771,216.262,0.1395,0.0191,95.77,294.44,3,0.2838,0.0943,33.4,45.11,321.493,296.498,0.263,0.0201,114.47,313.14,1,0.1467,0.1854,20.4,66.47,313.009,298.888,0.4505,0.0189,88.03,286.7,3,0.4256,0.0106,38.79,36.26,192.479,147.589,0.042,0.0243,143.54,342.21,0,0.0109,0.306,0.18,99.7,397.193,390.814,0.5315,0.0253,74.74,273.41,3,0.3344,0.0298,48.02,21.08,233.324,209.453,0.11,0.9039,79.18,277.85,3,0.3075,0.0461,44.94,26.15,236.322,215.991,0.1675,0.2061,79.59,278.26,3,0.3076,0.0464,44.66,26.62,236.542,215.052,0.167,1.6463,74.75,273.42,3,0.336,0.0262,48.02,21.09,228.947,207.627,0.098,0.0281,74.48,273.16,3,0.3342,0.0295,48.2,20.79,232.159,208.095,0.1095,0.0234,74.5,273.17,3,0.3329,0.0299,48.19,20.8,232.657,208.095,0.1105,0.0998,74.31,272.98,3,0.3284,0.0303,48.33,20.58,232.87,208.351,0.1115,0.1082,75.01,273.68,3,0.3448,0.0256,47.84,21.38,229.756,207.385,0.0945,0.0109,73.68,272.36,3,0.3364,0.0257,48.76,19.87,228.317,202.835,0.096,0.3285,73.85,272.52,3,0.3269,0.0285,48.64,20.06,227.684,204.53,0.1075,0.9024,56.3,254.97,3,0.3077,0.0056,60.85,177.237,144.775,0.0225,0.0,53.92,252.59,0,0.0,0.0,62.51,176.844,144.775,0.0,0.0,7.868,3,4,0.0,4.6
CON3-7,SAA,50,5,635.3,238.53,7.91,246.45,0,0.0,0.0193,153.931,73.868,0.053,0.0,5.32,243.85,1,0.0202,0.0034,32.85,43.82,95.591,40.314,0.016,0.2463,8.26,246.79,1,0.037,0.0012,-4.4,107.52,112.17,51.492,0.006,0.0235,5.34,243.87,1,0.0206,0.0032,32.49,44.43,95.383,40.314,0.015,0.2459,5.68,244.21,1,0.0231,0.0039,28.24,51.7,93.393,38.731,0.016,0.0201,5.67,244.2,1,0.0121,0.0088,28.32,51.56,107.841,33.501,0.0275,0.0221,6.15,244.69,0,0.0087,0.0113,22.24,61.96,119.783,33.501,0.037,0.0223,6.96,245.49,1,0.031,0.0013,12.05,79.4,104.125,51.492,0.0065,0.0264,3.03,241.56,1,0.0304,0.0024,61.77,-5.64,51.739,17.991,0.011,0.0226,4.7,243.23,1,0.0185,0.0036,40.63,30.51,87.814,33.501,0.015,0.5406,5.25,243.78,1,0.0177,0.0048,33.64,42.46,97.63,35.752,0.0215,0.2022,2.63,241.16,0,0.0,0.0008,66.73,-14.14,42.944,17.991,0.004,1.7067,4.39,242.92,0,0.0,0.0016,44.49,23.9,60.999,32.503,0.0075,0.0264,4.7,243.23,1,0.0183,0.0037,40.58,30.6,87.891,33.501,0.0155,0.0278,2.02,240.55,0,0.0,0.0013,74.53,-27.47,37.374,9.451,0.0065,0.0941,2.03,240.56,0,0.0001,0.0013,74.38,-27.22,37.603,9.451,0.0065,0.0948,6.2,244.73,1,0.0255,0.0039,21.7,62.89,107.163,40.314,0.0165,0.013,4.47,243.0,1,0.0196,0.0025,43.51,25.58,83.888,33.501,0.011,0.4383,1.91,240.44,0,0.0,0.0005,75.88,-29.79,34.603,9.451,0.0025,1.0103,3.29,241.82,1,0.0193,0.0,58.47,63.953,30.285,0.0,0.0,1.11,239.64,0,0.0,0.0,85.95,21.835,7.594,0.0,0.0,0.077,5,5,0.0,4.6
CON3-6,Det,50,4,515.59,191.56,140.27,331.83,0,0.0,0.2883,377.54,367.69,0.5715,0.0,85.13,276.69,3,0.2863,0.0556,39.31,25.94,252.078,244.681,0.211,0.2214,95.99,287.55,3,0.3905,0.0328,31.57,40.53,246.216,245.646,0.1305,0.0219,84.19,275.75,3,0.2868,0.0534,39.98,24.68,256.12,244.416,0.1975,0.2372,88.23,279.79,3,0.3195,0.0508,37.1,30.11,261.021,243.579,0.186,0.0175,105.04,296.6,2,0.2285,0.1207,25.12,52.68,342.981,302.098,0.36,0.0186,128.8,320.36,1,0.0541,0.2416,8.18,84.6,377.54,367.69,0.504,0.0179,93.06,284.62,3,0.3711,0.0343,33.66,36.59,246.842,245.646,0.1355,0.0207,134.15,325.71,1,0.0509,0.2574,4.36,91.78,387.776,376.105,0.56,0.0231,81.55,273.11,3,0.2795,0.0515,41.86,21.14,254.258,243.863,0.1945,0.9054,83.8,275.36,3,0.2949,0.0489,40.25,24.16,253.776,244.681,0.1835,0.1788,83.83,275.39,2,0.2309,0.0587,40.24,24.2,261.219,243.873,0.2165,1.5208,81.34,272.9,2,0.2426,0.0549,42.01,20.85,258.921,243.869,0.204,0.0247,81.57,273.13,3,0.2809,0.051,41.85,21.16,254.679,243.863,0.1925,0.0287,80.82,272.37,2,0.2338,0.0566,42.38,20.15,276.215,234.369,0.1995,0.1021,80.19,271.75,2,0.2363,0.0548,42.83,19.31,266.754,239.289,0.198,0.1076,82.54,274.1,3,0.2782,0.0535,41.15,22.47,255.839,243.344,0.2015,0.0135,80.84,272.4,3,0.2809,0.0492,42.37,20.18,252.667,243.863,0.1865,0.3148,79.33,270.88,2,0.238,0.0511,43.45,18.15,261.083,234.369,0.1875,0.9288,65.81,257.37,3,0.2578,0.0305,53.08,242.865,238.394,0.122,0.0,61.31,252.87,0,0.0,0.0,56.29,234.826,220.797,0.0,0.0,0.069,4,4,0.0,4.5
CON3-6,SAA,50,5,562.39,231.24,10.01,241.25,0,0.0,0.0245,179.411,77.59,0.064,0.0,6.39,237.63,1,0.0224,0.0055,36.17,38.2,111.56,45.456,0.0245,0.2488,10.57,241.8,2,0.0467,0.0014,-5.5,109.4,123.835,82.667,0.007,0.0231,6.28,237.52,1,0.0242,0.0044,37.33,36.21,106.817,44.337,0.0205,0.242,7.5,238.74,1,0.0153,0.0117,25.11,57.09,137.531,35.076,0.0395,0.0185,6.81,238.05,1,0.0176,0.0091,31.98,45.35,121.548,37.211,0.0305,0.0204,8.46,239.7,0,0.0109,0.0159,15.51,73.49,153.037,67.423,0.0495,0.0215,8.0,239.24,1,0.0367,0.0015,20.11,65.64,114.27,70.303,0.0075,0.0242,4.5,235.74,2,0.0516,0.0033,55.05,5.93,61.556,21.019,0.015,0.0207,5.69,236.93,1,0.0236,0.004,43.17,26.24,100.313,37.211,0.018,0.6479,6.08,237.32,1,0.0247,0.0038,39.29,32.86,102.97,43.028,0.018,0.1855,4.24,235.48,0,0.0095,0.0017,57.67,1.45,71.146,29.236,0.0085,1.7136,5.57,236.81,0,0.0,0.0011,44.4,24.13,62.957,43.33,0.0055,0.0408,5.66,236.89,1,0.0236,0.0039,43.53,25.62,99.162,37.211,0.0175,0.0271,2.8,234.04,0,0.0,0.002,72.02,-23.07,45.862,15.514,0.01,0.1047,2.82,234.06,0,0.0005,0.002,71.83,-22.75,46.241,15.514,0.01,0.0949,7.65,238.89,1,0.0206,0.0099,23.63,59.62,128.783,69.482,0.0355,0.0123,5.46,236.7,1,0.0257,0.0025,45.44,22.35,93.104,37.211,0.012,0.4154,2.43,233.67,0,0.0,0.001,75.71,-29.37,40.283,15.514,0.0045,1.281,4.15,235.39,1,0.0245,0.0,58.52,74.304,32.462,0.0,0.0,1.41,232.65,0,0.0,0.0,85.93,25.898,10.588,0.0,0.0,0.069,5,5,0.0,4.9
CON8-1,Det,50,9,740.93,389.09,353.99,743.08,0,0.0,0.4473,813.649,808.411,0.7325,0.0,261.03,650.12,7,0.3636,0.1807,26.26,41.25,591.123,538.984,0.657,0.2142,271.8,660.89,7,0.4545,0.1527,23.22,48.05,558.458,536.278,0.621,0.0184,260.69,649.79,7,0.3615,0.1812,26.36,41.03,589.477,538.438,0.6595,0.208,282.61,671.7,6,0.3841,0.201,20.16,54.88,634.946,581.361,0.653,0.021,289.57,678.67,5,0.2603,0.2578,18.2,59.29,750.831,715.112,0.6725,0.0204,284.14,673.23,5,0.2522,0.2556,19.73,55.85,688.062,650.039,0.681,0.0207,269.3,658.39,7,0.4447,0.1542,23.92,46.47,558.381,536.278,0.624,0.0192,328.91,718.0,3,0.1279,0.3898,7.09,84.15,825.95,816.328,0.7175,0.0307,258.97,648.06,7,0.3685,0.1769,26.84,39.94,586.372,536.278,0.652,0.5036,260.73,649.82,7,0.3658,0.1794,26.35,41.06,588.005,536.278,0.658,0.1753,253.97,643.07,6,0.3014,0.1822,28.25,36.78,596.82,547.413,0.6545,1.493,252.31,641.4,6,0.2973,0.1844,28.72,35.73,590.615,547.063,0.6585,0.0178,258.51,647.6,7,0.3751,0.1735,26.97,39.65,587.081,536.278,0.648,0.0239,254.19,643.28,6,0.2998,0.1833,28.19,36.92,606.58,566.458,0.65,0.072,249.49,638.58,6,0.3166,0.1732,29.52,33.95,583.465,536.278,0.644,0.0663,260.6,649.69,7,0.3665,0.1793,26.38,40.97,593.223,540.35,0.652,0.0093,257.93,647.03,7,0.3817,0.1698,27.14,39.29,580.066,536.278,0.642,0.2712,248.96,638.05,6,0.3028,0.1758,29.67,33.62,593.112,541.484,0.6425,0.471,195.77,584.87,7,0.3336,0.1137,44.7,540.482,496.514,0.5325,0.0,179.43,568.52,0,0.0,0.0,49.31,532.732,493.279,0.0,0.0,0.078,6,9,0.0,3.5
CON8-1,SAA,50,14,963.63,586.36,37.34,623.71,0,0.0,0.0344,518.609,240.827,0.145,0.0,29.0,615.36,3,0.0314,0.0132,22.35,60.98,361.479,201.207,0.102,0.1922,31.2,617.56,4,0.0409,0.0107,16.45,71.29,360.007,213.576,0.0875,0.0174,29.0,615.36,3,0.0314,0.0132,22.35,60.98,361.479,201.207,0.102,0.1798,31.04,617.4,2,0.0235,0.0185,16.88,70.54,406.166,213.585,0.111,0.0235,31.96,618.32,2,0.0208,0.0206,14.42,74.83,420.579,220.953,0.1155,0.0228,32.48,618.84,2,0.019,0.0219,13.02,77.27,427.18,222.297,0.117,0.0234,30.57,616.94,3,0.0393,0.0109,18.12,68.36,359.876,210.258,0.088,0.0195,19.36,605.73,6,0.0824,0.0083,48.15,15.94,226.606,117.046,0.066,0.0235,28.8,615.16,3,0.0338,0.0122,22.88,60.05,357.888,190.374,0.093,0.3035,29.01,615.37,3,0.0314,0.0132,22.33,61.02,362.202,207.014,0.102,0.1462,18.68,605.04,1,0.005,0.009,49.99,12.73,241.608,118.991,0.074,1.2238,17.97,604.33,0,0.0,0.0071,51.88,9.43,214.115,110.175,0.0595,0.0157,28.88,615.25,3,0.033,0.0126,22.65,60.45,360.852,190.409,0.0935,0.0208,16.33,602.69,0,0.0,0.0074,56.28,1.74,217.747,103.769,0.06,0.0589,15.52,601.88,0,0.0004,0.0072,58.45,-2.05,207.781,100.39,0.0595,0.0456,29.42,615.79,3,0.0344,0.0126,21.21,62.98,361.732,194.634,0.088,0.0097,28.0,614.37,3,0.0295,0.0133,25.01,56.33,356.613,183.81,0.097,0.3022,15.51,601.88,0,0.0,0.0074,58.46,-2.06,207.741,100.99,0.0595,0.428,15.95,602.32,3,0.0341,0.0003,57.28,221.611,103.497,0.0045,0.0,5.49,591.85,0,0.0,0.0,85.3,82.43,35.097,0.0,0.0,0.069,14,14,0.0,2.9
CON8-0,Det,50,9,871.84,402.18,363.1,765.28,0,0.0,0.4545,837.17,825.856,0.733,0.0,256.21,658.39,7,0.3901,0.1525,29.44,35.46,586.646,553.719,0.6415,0.255,269.77,671.96,8,0.4772,0.1269,25.7,43.65,565.416,509.649,0.6045,0.023,257.37,659.55,7,0.3798,0.1569,29.12,36.16,591.443,559.745,0.6485,0.2467,279.24,681.42,8,0.4478,0.1592,23.1,49.36,595.11,559.745,0.645,0.0254,284.3,686.48,7,0.3259,0.2168,21.7,52.42,725.941,673.503,0.651,0.0249,296.53,698.71,4,0.2105,0.2788,18.33,59.8,703.645,670.21,0.697,0.0251,265.39,667.58,8,0.458,0.1313,26.91,41.01,568.273,509.652,0.6145,0.0235,343.43,745.61,3,0.1139,0.404,5.42,88.12,854.937,845.178,0.7165,0.0347,254.12,656.3,7,0.3872,0.1518,30.01,34.2,588.98,555.47,0.637,0.5911,256.43,658.62,7,0.3729,0.1594,29.38,35.59,594.689,559.745,0.6515,0.1981,253.09,655.27,7,0.3422,0.1567,30.3,33.57,594.539,559.575,0.6465,1.6835,251.33,653.52,7,0.3451,0.1536,30.78,32.52,594.503,556.046,0.6355,0.0283,254.23,656.41,7,0.3859,0.1523,29.98,34.26,588.957,555.47,0.6395,0.0294,248.53,650.71,7,0.3399,0.1553,31.55,30.82,592.845,556.021,0.6445,0.0839,247.66,649.84,7,0.3284,0.1568,31.79,30.3,594.872,555.449,0.6445,0.0699,255.75,657.94,7,0.4014,0.1474,29.56,35.19,585.585,552.998,0.634,0.0123,253.15,655.33,7,0.3901,0.1501,30.28,33.61,584.559,551.53,0.6375,0.3233,247.55,649.73,7,0.3296,0.1541,31.82,30.23,594.672,556.864,0.635,0.5393,197.48,599.67,8,0.3568,0.0977,45.61,549.259,500.838,0.5295,0.0,179.29,581.47,0,0.0,0.0,50.62,547.92,498.569,0.0,0.0,0.085,6,9,0.0,4.0
CON8-0,SAA,50,15,1164.19,641.42,24.95,666.37,0,0.0,0.0213,354.433,164.329,0.119,0.0,20.63,662.05,2,0.0191,0.0091,17.3,69.82,262.053,146.128,0.0875,0.2132,21.18,662.6,2,0.0238,0.0075,15.09,73.67,256.635,149.838,0.079,0.0189,20.63,662.05,2,0.0191,0.0091,17.3,69.82,262.053,146.128,0.0875,0.2011,21.19,662.61,2,0.0154,0.0113,15.05,73.74,277.427,150.598,0.0935,0.0246,20.84,662.26,2,0.0152,0.0112,16.46,71.29,270.62,150.24,0.0945,0.0241,21.24,662.66,1,0.011,0.0133,14.85,74.09,281.674,159.235,0.105,0.0248,20.48,661.9,2,0.022,0.0078,17.92,68.74,250.425,146.128,0.082,0.0199,14.41,655.83,4,0.0416,0.0076,42.24,26.31,185.478,102.589,0.0755,0.0221,19.99,661.41,2,0.02,0.0084,19.86,65.35,250.419,144.345,0.084,0.3503,20.56,661.98,2,0.0187,0.0093,17.6,69.29,260.041,147.046,0.088,0.1472,14.72,656.14,0,0.0036,0.0068,40.98,28.49,185.684,108.169,0.0735,1.3078,15.8,657.22,0,0.0,0.0082,36.68,36.0,200.813,109.443,0.075,0.0178,19.9,661.32,2,0.0201,0.0083,20.22,64.72,248.938,144.348,0.083,0.0225,13.47,654.89,0,0.0023,0.0051,46.01,19.73,160.999,92.664,0.059,0.0649,13.3,654.71,0,0.001,0.0054,46.71,18.51,161.351,95.388,0.0625,0.05,21.25,662.67,2,0.0186,0.0103,14.84,74.11,267.51,154.923,0.096,0.0101,19.54,660.96,2,0.0163,0.0097,21.67,62.19,248.169,147.776,0.096,0.3046,12.57,653.99,0,0.0012,0.0052,49.63,13.4,157.302,92.601,0.061,0.4444,10.65,652.07,2,0.0213,0.0,57.31,151.186,71.394,0.0,0.0,4.29,645.71,0,0.0,0.0,82.8,66.055,33.778,0.0,0.0,0.086,14,15,0.0,3.1
CON3-9,Det,50,4,590.64,199.06,79.34,278.4,0,0.0,0.1965,357.452,331.951,0.378,0.0,44.79,243.85,3,0.1994,0.0235,43.55,28.38,182.314,147.265,0.092,0.2424,58.24,257.3,3,0.3065,0.0032,26.59,56.26,157.691,136.765,0.013,0.0249,44.42,243.48,3,0.2177,0.0144,44.01,27.62,166.999,135.775,0.056,0.243,57.15,256.21,3,0.2369,0.0395,27.97,54.0,241.51,214.254,0.1395,0.0157,48.21,247.27,3,0.1821,0.0441,39.24,35.46,251.121,190.191,0.138,0.0176,61.64,260.7,2,0.0959,0.1069,22.31,63.3,304.942,275.059,0.276,0.0192,50.88,249.94,3,0.2687,0.0055,35.87,41.01,160.2,136.765,0.022,0.0206,59.91,258.97,2,0.1635,0.1082,24.49,59.73,332.74,271.746,0.267,0.0225,41.65,240.71,3,0.2034,0.0186,47.51,21.86,181.068,142.896,0.0715,0.8568,43.86,242.92,3,0.2058,0.0192,44.72,26.45,180.701,136.85,0.074,0.1672,43.77,242.83,3,0.1609,0.0268,44.83,26.27,195.908,150.337,0.102,1.5302,38.03,237.09,2,0.096,0.022,52.07,14.36,204.641,153.15,0.0795,0.0246,41.16,240.23,3,0.205,0.0167,48.11,20.86,173.997,135.425,0.0645,0.0271,40.11,239.17,2,0.1663,0.0199,49.45,18.67,185.882,136.85,0.0765,0.1041,35.09,234.16,2,0.0941,0.0186,55.77,8.27,182.642,143.337,0.069,0.1124,42.39,241.45,3,0.2107,0.017,46.57,23.41,179.057,135.775,0.0645,0.01,40.79,239.85,3,0.2079,0.0152,48.58,20.09,177.285,135.425,0.0585,0.3538,34.45,233.52,2,0.0799,0.0178,56.57,6.95,180.32,140.721,0.0655,1.0648,31.1,230.16,3,0.1965,0.0,60.8,136.846,127.171,0.0,0.0,20.85,219.91,0,0.0,0.0,73.72,120.556,105.067,0.0,0.0,0.064,2,4,0.0,4.6
CON3-9,SAA,50,5,653.43,240.34,12.28,252.62,0,0.0,0.0325,199.994,77.869,0.081,0.0,7.36,247.7,1,0.0332,0.0044,40.09,32.24,113.196,64.101,0.02,0.2168,13.38,253.72,2,0.0703,0.0008,-8.94,115.11,128.176,75.59,0.004,0.0195,7.36,247.7,1,0.0332,0.0044,40.09,32.24,113.196,64.101,0.02,0.2061,8.04,248.38,1,0.0334,0.0074,34.54,41.62,120.57,59.946,0.0285,0.0173,7.5,247.84,1,0.0271,0.0086,38.94,34.19,121.591,59.814,0.031,0.0189,8.25,248.6,1,0.0221,0.0123,32.78,44.6,137.436,60.968,0.044,0.0186,10.61,250.95,2,0.0563,0.0009,13.59,77.02,119.873,74.301,0.0045,0.022,3.52,243.86,2,0.0594,0.0017,71.35,-20.59,50.115,21.089,0.008,0.0189,6.78,247.12,2,0.0353,0.0028,44.8,24.29,103.859,60.691,0.0125,0.5504,7.02,247.36,1,0.0306,0.0051,42.87,27.54,110.549,62.113,0.0235,0.1695,3.55,243.89,0,0.0,0.0012,71.1,-20.17,47.484,23.832,0.0055,1.725,5.35,245.7,0,0.0,0.0032,56.41,4.66,67.994,34.053,0.012,0.0318,6.59,246.94,2,0.0344,0.0028,46.29,21.76,100.69,60.689,0.013,0.0233,2.66,243.0,0,0.0,0.002,78.37,-32.46,43.023,16.443,0.01,0.0916,2.67,243.02,0,0.0003,0.002,78.23,-32.22,43.379,16.443,0.01,0.0936,7.93,248.27,2,0.0362,0.0053,35.4,40.16,115.592,63.959,0.019,0.0121,6.23,246.58,1,0.0339,0.0021,49.22,16.8,98.228,59.832,0.01,0.3907,2.53,242.88,0,0.0004,0.0009,79.38,-34.15,40.54,16.461,0.0045,1.0096,5.01,245.36,1,0.0325,0.0,59.17,81.689,31.491,0.0,0.0,1.45,241.79,0,0.0,0.0,88.19,24.485,10.53,0.0,0.0,0.064,5,5,0.0,4.5
CON3-8,Det,50,4,523.05,192.3,120.92,313.22,0,0.0,0.2466,323.883,272.17,0.5425,0.0,67.35,259.66,2,0.2546,0.0363,44.3,22.42,222.495,182.976,0.1315,0.2445,74.87,267.17,2,0.3301,0.0199,38.08,33.31,220.194,181.686,0.07,0.022,65.53,257.83,2,0.2486,0.0356,45.81,19.78,226.006,183.076,0.127,0.2398,70.96,263.27,2,0.2864,0.0306,41.31,27.65,231.709,188.041,0.1035,0.0197,84.17,276.47,2,0.2268,0.0811,30.39,46.78,297.188,271.75,0.2415,0.0225,94.16,286.47,1,0.1386,0.1291,22.13,61.25,286.982,257.924,0.4545,0.0219,72.02,264.32,2,0.3123,0.0217,40.44,29.18,220.952,181.686,0.0775,0.0249,116.04,308.34,1,0.0558,0.2119,4.04,92.93,311.705,298.784,0.495,0.0257,65.74,258.04,2,0.2518,0.0349,45.64,20.08,227.067,183.024,0.122,1.0355,66.23,258.54,2,0.2529,0.0349,45.23,20.8,223.164,182.976,0.1265,0.1971,64.7,257.0,2,0.2271,0.0381,46.49,18.58,215.747,187.096,0.1365,1.8087,64.85,257.15,2,0.2344,0.0314,46.37,18.79,211.73,187.406,0.1135,0.0315,65.6,257.91,2,0.2548,0.0335,45.75,19.89,226.581,182.976,0.117,0.0296,64.29,256.59,2,0.2301,0.0356,46.84,17.98,219.639,186.792,0.1235,0.1046,64.13,256.43,2,0.2328,0.0341,46.97,17.75,219.156,184.295,0.1175,0.107,66.35,258.66,2,0.2569,0.0343,45.13,20.98,225.73,191.014,0.125,0.0114,64.79,257.09,2,0.2524,0.0326,46.42,18.71,224.885,182.373,0.1145,0.3536,63.4,255.71,2,0.2209,0.0335,47.56,16.7,216.792,187.096,0.118,1.0761,51.87,244.18,2,0.2289,0.0177,57.1,212.573,180.569,0.0635,0.0,46.55,238.85,0,0.0,0.0,61.51,202.081,180.569,0.0,0.0,0.066,4,4,0.0,5.1
CON3-8,SAA,50,5,624.76,237.48,12.74,250.21,0,0.0,0.0317,212.247,83.47,0.078,0.0,7.82,245.3,1,0.03,0.0052,38.6,34.28,127.495,73.534,0.0235,0.2444,11.02,248.49,2,0.0504,0.0012,13.5,77.02,135.701,86.917,0.006,0.0225,7.82,245.3,1,0.03,0.0052,38.6,34.28,127.495,73.534,0.0235,0.2289,9.08,246.56,1,0.0292,0.0103,28.68,51.17,148.308,64.786,0.04,0.0184,9.31,246.78,1,0.0249,0.0124,26.93,54.16,147.068,74.466,0.05,0.0204,9.72,247.2,1,0.0203,0.0152,23.69,59.67,156.709,77.338,0.056,0.025,9.43,246.91,2,0.0433,0.0016,25.95,55.82,130.74,79.869,0.008,0.0269,4.56,242.03,2,0.0528,0.0029,64.21,-9.32,65.259,27.604,0.0125,0.0242,6.98,244.46,1,0.0295,0.0051,45.18,23.07,117.786,65.533,0.023,0.5162,7.24,244.72,1,0.0273,0.0061,43.15,26.53,121.094,70.57,0.0275,0.2091,4.55,242.02,0,0.002,0.0025,64.3,-9.47,66.392,25.643,0.0115,1.7089,5.42,242.9,0,0.0,0.0013,57.43,2.23,68.382,44.324,0.005,0.026,6.97,244.45,1,0.0285,0.0055,45.25,22.95,117.929,65.527,0.025,0.0316,3.65,241.12,0,0.0,0.0035,71.38,-21.52,63.091,23.117,0.0175,0.1094,3.74,241.22,0,0.0001,0.0038,70.62,-20.23,65.097,23.117,0.018,0.1054,8.51,245.99,2,0.0339,0.0062,33.16,43.54,133.973,69.655,0.025,0.0136,6.77,244.24,1,0.0344,0.0023,46.88,20.18,109.93,65.141,0.011,0.4066,3.35,240.83,0,0.0,0.0019,73.68,-25.44,55.882,24.498,0.0095,1.0297,5.26,242.73,1,0.0317,0.0,58.74,87.321,34.835,0.0,0.0,1.9,239.37,0,0.0,0.0,85.12,32.766,14.817,0.0,0.0,0.086,5,5,0.0,4.6
