Instance,Plan,route,m,none_rec,v1_end_rec,v1_myo_rec,fb_tau_rec,pi1_rec,pi2_rec,pi3_rec,rollout_rec,restock_rec,thr_k_rec,ro_theta_rec,thr2_rec,dp3_n_rec,v2_lsm_rec,v2_act_rec,v2_cf_rec,dp_n_rec,dp_xl_rec,dp_xl3_rec,oracle_rec,oracle3_rec
CON3-0,Det,0,9,1.8294,1.3626,1.4402,1.3626,1.6338,1.6201,1.8294,1.3723,0.6714,1.3348,1.3766,0.6636,1.4243,1.2797,0.5206,0.5206,1.8294,1.2262,0.4751,1.0103,0.3168
CON3-0,Det,1,12,26.5303,20.6858,30.949,20.2806,20.2618,20.0315,18.6354,23.782,19.7157,17.7628,18.1451,15.7645,13.2314,17.7427,15.0389,13.0172,18.1024,17.6948,13.014,15.4763,8.876
CON3-0,Det,2,12,1.3393,0.9157,1.4511,0.9157,0.9356,1.0212,1.2895,1.4009,0.5029,0.9319,0.9241,0.4835,1.2724,0.9448,0.5141,0.5141,1.5532,0.8536,0.4111,0.7355,0.2551
CON3-0,Det,3,17,57.0773,53.569,56.0162,53.3014,55.8688,54.2708,54.9204,54.8774,57.0773,53.0877,53.3932,53.2996,53.3576,53.2719,53.2611,53.2816,53.2259,53.1555,52.9623,49.3608,48.609
CON3-0,SAA,0,11,2.686,2.2943,3.088,2.2943,2.385,2.1889,2.194,2.2733,1.1906,2.0018,2.1668,1.145,1.7663,2.0018,0.9829,0.9829,2.3469,1.9224,0.8699,1.6753,0.5842
CON3-0,SAA,1,8,1.4003,0.9463,1.3096,0.9463,1.0875,1.1323,0.933,1.1606,0.3717,0.8999,0.9459,0.3469,0.6687,0.9101,0.2754,0.2754,1.1034,0.9095,0.249,0.7889,0.176
CON3-0,SAA,2,11,1.1376,0.8323,1.1805,0.8323,0.9388,1.0221,0.9208,0.9585,0.5985,0.7901,0.7941,0.5695,1.0771,0.7882,0.3031,0.3031,1.1376,0.7752,0.3138,0.682,0.2282
CON3-0,SAA,3,10,2.6325,2.0373,2.3589,2.0162,2.5672,1.9063,1.9276,2.1875,1.2492,1.7962,2.0261,1.1848,0.9215,1.8729,0.7344,0.7344,1.8498,1.7569,0.7317,1.4759,0.4303
CON3-0,SAA,4,10,3.7214,2.9593,3.3278,3.1252,3.536,3.085,3.6069,3.2765,2.7679,2.8971,2.9003,2.5519,1.8052,2.9019,1.8095,1.8095,3.1337,2.8428,1.6085,2.3171,0.9161
CON3-2,Det,0,3,0.0,0.0,0.0,0.0,0.0,0.0,0.0,0.0,0.0,0.0,0.0,0.0,0.0,0.0,0.0,0.0,0.0,0.0,0.0,0.0,0.0
CON3-2,Det,1,14,34.6949,23.8023,31.9295,23.3343,24.586,30.2421,23.51,27.314,34.6949,22.6781,23.4427,23.3729,23.7699,22.7352,22.7113,22.7029,22.8125,22.6751,22.8783,19.2929,18.8646
CON3-2,Det,2,16,38.6412,32.1783,34.952,31.8955,34.0327,32.0745,32.2479,34.4552,38.6412,31.5329,32.1595,32.0694,31.6557,31.4385,31.2318,31.3041,31.6797,31.6869,31.3376,28.1895,26.99
CON3-2,Det,3,17,27.4836,20.9421,21.555,20.6648,22.3627,25.2996,27.4836,21.0646,27.0974,20.4253,20.4441,20.549,20.6358,20.3595,20.3595,19.9699,20.996,20.2292,20.0454,15.1427,13.7033
CON3-2,SAA,0,9,0.4454,0.3214,0.421,0.3214,0.4454,0.4454,0.4454,0.4206,0.2297,0.3285,0.3214,0.1881,0.4454,0.3285,0.2073,0.2073,0.4454,0.3469,0.1421,0.2408,0.0845
CON3-2,SAA,1,8,2.9644,2.3655,3.2426,2.3655,2.5246,2.3414,2.2727,2.8538,1.2777,2.3597,2.3598,1.2331,1.7302,2.3739,1.0898,1.1471,2.4436,2.2399,1.0123,1.8955,0.6556
CON3-2,SAA,2,13,0.6457,0.9073,0.963,0.9073,0.4861,0.6344,0.6457,0.9062,0.2157,0.4374,0.4462,0.2724,1.2074,0.4456,0.1965,0.1965,0.6457,0.4392,0.205,0.3709,0.1287
CON3-2,SAA,3,9,1.3625,1.3462,1.4861,1.3462,1.2692,1.0688,1.3991,1.3431,0.8334,1.0679,1.3289,0.8352,1.0132,1.0521,0.4081,0.4081,1.1473,0.9624,0.3478,0.759,0.2124
CON3-2,SAA,4,11,1.42,0.9896,1.1722,0.9896,1.3039,0.903,0.9059,1.1615,0.5938,0.9089,0.9245,0.6036,1.0152,0.9196,0.3785,0.3785,1.1324,0.9102,0.4013,0.7845,0.2504
CON3-1,Det,0,20,29.9971,19.901,28.0757,19.4271,20.8493,21.4581,21.0118,23.6029,29.9971,18.6786,19.3391,19.0569,18.6078,18.6184,18.6184,17.9395,18.6572,18.5414,17.9078,15.7614,14.2143
CON3-1,Det,1,11,33.9612,22.4602,23.906,21.8969,24.0919,25.3545,22.0621,23.7684,32.3941,21.4588,22.0628,21.2768,20.4581,21.6948,20.1812,20.184,21.6367,21.4604,20.0082,18.2565,14.9369
CON3-1,Det,2,3,0.0,0.0,0.0,0.0,0.0,0.0,0.0,0.0,0.0,0.0,0.0,0.0,0.0,0.0,0.0,0.0,0.0,0.0,0.0,0.0,0.0
CON3-1,Det,3,16,47.0878,40.7527,42.9622,40.6641,41.6265,42.157,41.1806,40.5066,47.0878,40.4576,40.4388,40.6639,40.2986,40.2818,40.2818,40.2818,40.5286,40.0568,40.3489,33.815,33.7173
CON3-1,SAA,0,14,1.4651,1.1532,1.9105,1.1532,1.0809,1.08,1.0106,1.2328,0.5075,1.0526,0.9756,0.5416,1.1645,1.0425,0.586,0.586,1.4651,0.9657,0.4536,0.8656,0.3373
CON3-1,SAA,1,8,2.7469,2.1499,2.3544,2.1008,2.6335,2.2332,2.0348,2.3245,1.234,2.0376,2.0458,1.1414,1.4484,2.0068,0.7945,0.7861,2.2809,1.9205,0.7548,1.5725,0.4221
CON3-1,SAA,2,5,1.2424,0.886,0.8486,0.886,0.869,1.0566,0.8995,0.8768,0.2581,0.8502,0.886,0.2993,0.6458,0.8502,0.2394,0.2394,1.2424,0.8086,0.257,0.7066,0.1575
CON3-1,SAA,3,10,3.1599,2.344,3.2982,2.351,3.2457,2.494,3.1599,2.8704,1.816,2.3317,2.3804,1.895,1.5797,2.3396,1.2332,1.301,2.576,2.3281,1.3482,1.8692,0.8431
CON3-1,SAA,4,13,2.2493,1.5997,1.9829,1.5997,1.8463,1.9436,2.0129,1.898,0.7592,1.547,1.5381,0.7532,1.1104,1.5452,0.6761,0.6761,1.7183,1.4492,0.6809,1.247,0.4347
CON3-3,Det,0,3,0.0,0.0,0.0,0.0,0.0,0.0,0.0,0.0,0.0,0.0,0.0,0.0,0.0,0.0,0.0,0.0,0.0,0.0,0.0,0.0,0.0
CON3-3,Det,1,14,39.4006,30.0544,41.0152,28.4508,30.1119,32.858,28.0242,35.6297,36.8255,27.0942,28.1177,29.0364,25.1158,27.1893,27.1893,24.8689,27.0042,27.0486,24.5842,23.1965,18.4645
CON3-3,Det,2,14,30.3164,20.2918,24.6237,20.0924,21.3064,25.8669,20.0549,22.6732,30.4453,19.7366,20.05,19.8841,19.0642,19.6252,19.066,19.0717,19.6748,19.5552,18.9953,16.3463,14.2159
CON3-3,Det,3,19,44.9282,27.847,30.0334,27.9412,30.9257,27.8662,30.0631,29.8484,44.9139,27.3406,27.4744,27.9412,27.8393,27.1622,26.847,26.9233,27.074,26.9276,26.8794,22.559,20.8438
CON3-3,SAA,0,7,3.5142,2.4983,3.0932,2.4983,2.7005,2.5076,2.3512,2.7183,1.0399,2.3952,2.4868,0.8593,0.9659,2.3802,0.9464,0.9464,2.4385,2.4375,0.8305,1.9896,0.4547
CON3-3,SAA,1,10,4.519,3.6451,4.3202,3.6451,4.6013,3.3317,3.6633,4.2098,2.1906,3.2683,3.4739,2.2308,1.8606,3.3228,1.708,1.743,3.3675,3.3923,1.7129,2.6946,1.0832
CON3-3,SAA,2,13,2.5669,2.0778,3.7124,2.0778,2.0893,2.0562,1.9173,2.4231,1.3281,1.8012,1.7869,1.3216,1.612,1.7792,0.7948,0.7891,2.254,1.8326,0.7638,1.4425,0.5225
CON3-3,SAA,3,11,2.2464,1.9233,3.885,1.9233,1.7043,1.7565,1.7233,1.8751,0.7068,1.7352,1.718,0.7389,0.7683,1.7308,0.7653,0.7653,1.7173,1.6981,0.7134,1.3284,0.3389
CON3-3,SAA,4,9,2.8607,2.4817,2.9833,2.4817,2.1583,2.3678,2.1821,2.6588,1.08,2.2124,2.4434,0.873,0.9965,2.1957,0.9288,0.9238,2.1902,2.1294,0.7671,1.6778,0.4179
CON3-5,Det,0,14,38.5957,26.6024,29.7209,26.8746,34.3496,29.8774,30.9355,29.3383,36.9817,26.8882,26.8996,26.2674,26.8246,26.8856,26.5842,26.4307,26.8041,26.8954,26.296,20.2702,16.9843
CON3-5,Det,1,19,52.4163,44.8311,45.5445,43.9853,45.8839,45.3003,51.7384,44.8175,52.4163,43.8911,44.1242,44.3023,44.4535,44.2328,44.2502,44.218,44.144,44.0164,44.1651,34.8951,34.1816
CON3-5,Det,2,15,39.7168,32.6269,33.2496,32.3704,33.6246,33.247,39.7168,33.0966,40.4229,32.6502,32.3702,32.4013,32.6872,32.5128,32.2491,32.2644,32.8959,32.6625,32.5815,26.2931,25.0086
CON3-5,Det,3,2,0.0,0.0,0.0,0.0,0.0,0.0,0.0,0.0,0.0,0.0,0.0,0.0,0.0,0.0,0.0,0.0,0.0,0.0,0.0,0.0,0.0
CON3-5,SAA,0,8,1.5889,1.4093,1.8389,1.4093,1.4383,1.3098,1.5227,1.5843,1.0205,1.2987,1.3372,1.3996,0.9398,1.2855,0.6075,0.6075,1.3881,1.2662,0.5819,0.9032,0.2558
CON3-5,SAA,1,8,1.6692,1.3138,1.5735,1.3138,1.3081,1.4758,1.2267,1.4419,0.5281,1.1787,1.3138,0.552,0.9604,1.1636,0.5528,0.5528,1.4849,1.1187,0.3811,0.9394,0.2382
CON3-5,SAA,2,10,0.4734,0.7241,0.7654,0.7241,0.3993,0.4034,0.3884,0.7206,0.2516,0.3787,0.381,0.2311,0.4734,0.3607,0.1971,0.1953,0.4734,0.3578,0.1989,0.2807,0.1162
CON3-5,SAA,3,9,0.1297,0.2058,0.221,0.2058,0.0958,0.1297,0.1297,0.2058,0.0652,0.152,0.1119,0.064,0.1297,0.1079,0.0876,0.0876,0.1297,0.1668,0.1009,0.0739,0.0167
CON3-5,SAA,4,15,2.5734,2.0128,3.0403,2.0128,2.1787,2.0483,2.1656,2.1508,1.2162,1.858,1.8242,1.1748,1.8642,1.8249,0.9792,0.9076,2.1009,1.8244,0.9088,1.5206,0.6289
CON3-4,Det,0,2,0.0,0.0,0.0,0.0,0.0,0.0,0.0,0.0,0.0,0.0,0.0,0.0,0.0,0.0,0.0,0.0,0.0,0.0,0.0,0.0,0.0
CON3-4,Det,1,13,39.2354,27.3453,29.4527,27.0598,28.7765,31.6284,26.6388,28.9036,38.5855,26.4075,26.8644,26.5084,25.8734,26.3432,26.3432,25.1054,26.5286,26.2144,25.4239,21.874,18.1116
CON3-4,Det,2,22,59.2778,42.1416,44.2246,42.2505,45.1277,49.3367,59.1157,42.8643,59.2778,41.7392,41.7833,42.2055,42.4351,41.6748,41.661,41.6339,41.8773,41.1322,41.5563,31.4788,30.6153
CON3-4,Det,3,13,37.6518,25.0754,25.7138,24.9681,27.0979,25.7799,25.6511,25.4566,37.6518,24.5834,24.8526,24.9681,26.4075,24.6674,24.6514,24.6391,24.6213,24.7572,24.6356,18.8971,17.9729
CON3-4,SAA,0,12,2.3052,2.5066,2.6379,2.4352,2.3185,1.9155,2.2817,2.4623,1.5499,1.917,1.9068,1.5081,1.1466,1.9227,0.7346,0.7346,2.0928,1.8097,0.6828,1.3746,0.4244
CON3-4,SAA,1,8,0.6786,0.5458,0.5458,0.5458,0.5512,0.6786,0.6786,0.5295,0.2465,0.5772,0.5458,0.2491,0.6786,0.533,0.2695,0.2695,0.6786,0.5109,0.1649,0.3856,0.0869
CON3-4,SAA,2,9,1.6354,1.417,2.1329,1.417,1.2972,1.3777,1.4536,1.8365,0.693,1.3329,1.3406,0.6763,1.025,1.343,0.5934,0.5934,1.6354,1.3393,0.5056,0.9973,0.2913
CON3-4,SAA,3,9,1.8301,1.2791,1.5201,1.2791,1.2795,1.4812,1.4594,1.4545,0.5,1.2423,1.2865,0.4916,1.036,1.2485,0.5545,0.5545,1.3002,1.1985,0.4075,1.0433,0.2518
CON3-4,SAA,4,12,1.432,1.1972,1.8729,1.1972,1.2544,1.2104,1.1042,1.2682,0.7199,1.1262,1.1323,0.7173,1.432,1.1106,0.5784,0.5784,1.432,1.1149,0.4863,0.8144,0.2875
CON3-6,Det,0,18,53.5308,44.4883,48.5704,43.8389,44.548,49.395,48.7082,44.8188,53.5308,43.4334,43.8382,43.9047,43.5162,43.3896,43.362,43.362,43.4672,43.016,43.047,36.3919,36.2886
CON3-6,Det,1,12,9.5748,7.0813,9.0469,6.8016,8.2105,8.1522,9.5748,7.5767,7.7114,6.7473,6.9766,6.3884,5.9319,6.7452,5.9428,5.3537,6.7003,6.6702,5.2088,5.1946,2.8736
CON3-6,Det,2,17,37.9301,24.0439,25.9148,23.3888,26.1818,26.6623,37.754,25.6095,37.2725,22.1779,23.927,23.1503,22.7987,22.1962,21.6598,21.6861,23.0945,22.1316,21.8182,18.3615,16.2817
CON3-6,Det,3,3,0.0,0.0,0.0,0.0,0.0,0.0,0.0,0.0,0.0,0.0,0.0,0.0,0.0,0.0,0.0,0.0,0.0,0.0,0.0,0.0,0.0
CON3-6,SAA,0,9,0.2096,0.1644,0.2002,0.1644,0.1873,0.199,0.199,0.1973,0.1032,0.1739,0.1722,0.1138,0.2096,0.1593,0.0482,0.0482,0.2096,0.2091,0.0724,0.1173,0.028
CON3-6,SAA,1,8,1.1959,0.9967,0.9967,0.9967,1.0993,0.9771,1.1959,0.9944,0.4985,0.9006,0.9587,0.4264,0.7556,0.9006,0.4049,0.4049,1.1959,0.895,0.3339,0.6924,0.1708
CON3-6,SAA,2,10,0.2811,0.2653,0.2775,0.2653,0.2811,0.2811,0.2811,0.2775,0.2323,0.2494,0.2172,0.2653,0.2811,0.2159,0.0945,0.0945,0.2811,0.2006,0.0945,0.1552,0.0494
CON3-6,SAA,3,11,3.1084,2.436,3.3484,2.3984,2.781,2.3696,2.9288,2.8249,2.2404,2.2919,2.2389,2.331,1.5539,2.2733,1.3382,1.2548,2.5106,2.2076,1.1204,1.8261,0.7333
CON3-6,SAA,4,12,2.3213,1.9058,2.4508,1.9058,1.7137,1.9,1.831,2.2312,0.7644,1.5971,1.6862,0.7385,1.5634,1.6304,0.7513,0.7468,2.0367,1.5408,0.5445,1.363,0.4272
CON3-7,Det,0,13,22.6968,15.8381,18.9684,15.5319,16.8721,20.1618,22.5935,18.5724,22.6968,15.2866,15.4508,15.4831,15.4926,15.2651,15.2651,15.4548,15.3497,15.1372,14.9422,12.4458,12.0597
CON3-7,Det,1,19,37.948,27.1568,29.2232,27.1172,28.364,31.4527,37.8188,28.7487,37.948,26.6418,26.8673,27.1166,25.9893,26.0334,26.016,26.0324,26.4523,25.9645,25.8691,19.7713,19.588
CON3-7,Det,2,1,0.0,0.0,0.0,0.0,0.0,0.0,0.0,0.0,0.0,0.0,0.0,0.0,0.0,0.0,0.0,0.0,0.0,0.0,0.0,0.0,0.0
CON3-7,Det,3,17,43.2536,31.3147,34.4093,31.0964,33.2645,30.6645,30.3712,32.4013,43.2536,29.0294,30.7024,30.8517,28.336,29.0412,28.9978,28.7257,28.6917,28.4914,28.1812,23.4053,21.5965
CON3-7,SAA,0,10,1.0574,0.8677,1.3157,0.8677,0.7833,0.9307,1.0574,1.1405,0.4027,0.8734,0.9928,0.4052,0.7551,0.8722,0.3455,0.3455,1.1214,0.7626,0.3365,0.5997,0.1806
CON3-7,SAA,1,7,0.0,0.0,0.0,0.0,0.0,0.0,0.0,0.0,0.0,0.0,0.0,0.0,0.0,0.0,0.0,0.0,0.0,0.0,0.0,0.0,0.0
CON3-7,SAA,2,12,0.803,0.6869,0.8617,0.6869,0.6192,0.803,0.803,0.7061,0.416,0.6827,0.6552,0.352,0.803,0.7381,0.3013,0.3013,0.803,0.6157,0.2852,0.4837,0.1937
CON3-7,SAA,3,9,0.9128,0.798,0.9477,0.798,0.7574,0.827,0.8417,0.8234,0.4951,0.7905,0.798,0.3375,0.4973,0.8013,0.3093,0.3093,0.9128,0.738,0.2655,0.5244,0.1231
CON3-7,SAA,4,12,2.8361,2.3437,3.37,2.3921,2.4137,2.1776,2.2122,2.517,1.4485,2.0256,2.1632,1.4116,1.5261,2.0174,0.9047,0.9053,2.2644,2.0211,0.887,1.6795,0.6145
CON8-1,Det,0,5,28.9181,24.1566,24.1457,24.1515,26.5615,24.2674,24.2939,24.1323,28.7546,24.2621,24.1325,24.1512,24.6082,24.2464,24.2464,24.0725,24.3308,24.114,23.9009,19.4279,18.3608
CON8-1,Det,1,5,20.693,18.6435,18.8878,18.4174,19.6649,19.4374,19.1844,18.8871,16.1021,18.6036,18.5769,15.3961,15.0026,18.5737,14.8445,14.8503,18.6041,18.5345,14.9889,15.9335,12.2522
CON8-1,Det,2,3,16.1831,13.973,14.0524,13.973,15.4647,13.9033,13.961,13.91,12.0925,13.9509,13.973,10.9751,11.133,13.9621,12.697,10.9466,13.8789,13.7791,11.0567,9.3707,5.9066
CON8-1,Det,3,9,43.6417,33.4432,34.5033,33.4934,35.4456,36.8575,33.4316,34.4914,43.6417,33.6555,33.4118,33.5385,33.22,33.6777,33.7003,33.6943,33.8365,33.0339,33.105,25.7839,25.5476
CON8-1,Det,4,6,28.5472,28.0243,28.2544,28.0235,28.4995,28.1554,28.5472,27.9797,28.5922,27.9959,27.9797,27.9797,28.089,27.9799,27.9799,27.9799,28.123,27.9446,28.0235,26.0787,25.8143
CON8-1,Det,5,6,22.1074,18.5267,19.1634,18.6825,19.7692,20.7817,22.1074,18.9194,22.1197,18.5559,18.6366,18.6366,18.398,18.5994,18.5994,18.6045,18.9808,18.3315,18.7094,12.3606,12.2246
CON8-1,Det,6,6,29.836,22.8715,24.6503,22.9239,26.7028,23.4431,23.0308,23.0313,25.6159,22.7929,22.8608,21.5356,20.8309,22.6288,22.6288,20.7158,22.6408,22.7736,20.5423,17.5622,12.502
CON8-1,Det,7,6,30.7654,26.0482,28.2123,26.1346,28.8244,30.1958,30.0713,26.5461,30.7654,26.156,26.1273,26.1346,26.2745,26.1512,26.1512,26.1386,26.493,26.1927,26.098,18.1256,17.6255
CON8-1,Det,8,4,31.698,31.0899,31.1349,31.1135,31.334,31.1612,31.062,31.1349,30.6258,31.1664,31.1349,30.8491,31.0724,31.1349,30.2961,30.4119,31.0549,31.1132,30.2262,27.0922,25.1595
CON8-1,SAA,0,3,1.6329,1.4875,1.482,1.4875,1.4962,1.6109,1.6329,1.4877,0.6149,1.4852,1.4782,0.5682,0.8343,1.4877,0.6829,0.6829,1.6329,1.4359,0.649,1.0307,0.2275
CON8-1,SAA,1,2,1.0031,0.9692,0.9692,0.9692,1.0937,0.9377,0.9377,0.9692,0.5852,0.9692,0.9692,0.5661,0.7014,0.9692,0.5757,0.5757,1.2162,0.906,0.5788,0.5784,0.124
CON8-1,SAA,2,4,2.0305,1.9312,2.0156,1.9312,1.8853,1.892,1.8787,2.0037,1.4644,1.8921,1.9312,1.5002,1.5999,1.8729,1.6455,1.4695,2.0305,1.9055,1.4476,1.2476,0.621
CON8-1,SAA,3,6,2.6329,2.2212,3.0823,2.2212,2.245,2.2723,2.1499,2.5383,1.0961,2.2211,2.1661,1.0597,1.1984,2.1722,0.936,0.9234,2.1696,2.2249,0.9545,1.5681,0.4395
CON8-1,SAA,4,6,2.4787,2.0668,2.6093,2.0668,2.389,2.4787,2.4787,2.2023,1.6792,2.0356,2.0796,1.6882,1.6372,2.0483,1.6206,1.4086,2.1449,2.1434,1.3964,1.4883,0.6952
CON8-1,SAA,5,3,0.2481,0.2452,0.2452,0.2452,0.239,0.2481,0.2481,0.2452,0.1566,0.262,0.2452,0.1565,0.2481,0.2452,0.1518,0.1518,0.2481,0.2481,0.1472,0.1518,0.0415
CON8-1,SAA,6,4,4.1147,3.6966,4.2546,3.6966,3.9305,3.7704,3.7575,3.6966,3.1744,3.713,3.6331,3.2396,2.3776,3.713,2.2356,2.1419,3.9299,3.6664,2.2067,2.5488,0.9786
CON8-1,SAA,7,4,0.216,0.1587,0.2076,0.1587,0.216,0.216,0.216,0.2076,0.2059,0.1881,0.1697,0.1587,0.216,0.1848,0.1148,0.1148,0.216,0.216,0.1387,0.122,0.0321
CON8-1,SAA,8,4,1.0132,0.957,0.967,0.957,0.9066,1.0132,1.0132,0.9663,0.5215,0.8787,0.957,0.3825,0.5081,0.8893,0.4014,0.4014,1.0132,0.911,0.4229,0.5944,0.1445
CON8-1,SAA,9,2,1.7877,1.6088,1.5942,1.6088,1.5975,1.6174,1.6174,1.5942,0.758,1.6088,1.5942,0.8277,0.8588,1.5942,0.7309,0.7779,1.5975,1.5748,0.7141,1.0261,0.2162
CON8-1,SAA,10,3,0.638,0.6058,0.6058,0.6058,0.5746,0.638,0.638,0.6058,0.5565,0.6535,0.6058,0.5478,0.638,0.6058,0.4718,0.4511,0.638,0.6587,0.5005,0.3818,0.1274
CON8-1,SAA,11,3,2.2121,2.1895,2.2449,2.1895,2.1396,2.3048,2.269,2.1895,1.5969,2.2205,2.1895,1.6486,1.6069,2.1895,1.7532,1.7004,2.409,2.1551,1.6362,1.2663,0.5496
CON8-1,SAA,12,3,2.9394,2.4447,2.7215,2.4447,2.5878,2.4279,2.6992,2.7215,1.719,2.4557,2.4447,1.74,1.3213,2.4402,1.3467,1.3467,2.5028,2.4475,1.2519,1.7318,0.4972
CON8-1,SAA,13,3,3.4556,2.8366,2.8366,2.8366,3.1271,3.2873,3.2168,2.8366,1.6337,2.8354,2.8366,1.5285,1.5579,2.8312,1.1596,1.1596,3.0683,2.8602,1.1504,2.1137,0.6921
CON3-9,Det,0,11,21.7903,15.8992,17.589,15.7382,19.0959,17.5402,16.1957,17.0935,18.5629,15.1679,15.6525,15.7375,13.0317,15.1436,15.1436,12.7769,15.3142,15.2969,12.7724,12.4043,8.1419
CON3-9,Det,1,11,0.5807,0.5888,0.7198,0.5888,0.521,0.5807,0.5807,0.6377,0.1998,0.3958,0.4458,0.1662,0.5807,0.4037,0.2237,0.1874,0.5807,0.4125,0.1736,0.3281,0.1069
CON3-9,Det,2,16,26.062,18.9155,23.1851,18.8586,22.6357,18.6573,23.2829,20.0981,22.2419,18.0092,18.1874,18.03,16.1407,17.9857,17.9857,15.9422,18.1382,17.871,15.3564,13.9828,10.1975
CON3-9,Det,3,12,8.4254,6.0004,7.4499,5.7519,8.1543,5.8541,8.4254,7.1956,6.1144,5.3568,5.7491,5.1193,5.3,5.3618,4.2052,3.7926,5.3898,5.3301,3.8597,4.385,2.4015
CON3-9,SAA,0,7,1.3562,1.1123,1.2759,1.1123,1.0742,0.9727,1.0276,1.2572,0.4392,0.9675,1.0801,0.4384,0.6888,0.9526,0.3345,0.3345,1.179,0.9298,0.3107,0.7843,0.1677
CON3-9,SAA,1,12,2.6874,1.9061,2.634,1.9061,1.8774,2.0111,2.446,2.0578,0.7423,1.7551,1.861,0.7619,1.315,1.755,0.7097,0.7097,2.0164,1.7255,0.6643,1.5064,0.4221
CON3-9,SAA,2,10,3.9333,3.0491,4.5325,3.0491,3.2163,2.8078,2.6006,3.4135,1.6499,2.6437,2.6772,1.738,1.5077,2.6252,1.1308,1.1398,2.7594,2.5713,1.094,2.253,0.7308
CON3-9,SAA,3,10,0.2553,0.2674,0.4806,0.2674,0.1979,0.2553,0.2553,0.2799,0.111,0.2123,0.222,0.1763,0.2553,0.2121,0.101,0.101,0.2553,0.2205,0.0936,0.1488,0.0509
CON3-9,SAA,4,11,0.553,0.5609,0.5495,0.5609,0.446,0.553,0.553,0.5331,0.3126,0.5825,0.4712,0.2842,0.553,0.5287,0.1515,0.1515,0.553,0.4482,0.1589,0.3215,0.0788
CON8-0,Det,0,5,24.9621,17.9282,18.6108,17.9166,18.329,20.7901,17.6525,18.4097,24.3101,17.3699,18.0435,17.6288,17.5959,17.4736,17.2097,17.2398,17.5194,17.5071,17.1398,14.4928,12.7341
CON8-0,Det,1,4,36.6928,35.9629,36.0889,36.0945,36.6324,35.9608,35.9157,36.0763,36.1094,35.9561,35.9501,36.0971,36.0073,35.9561,35.5603,35.6733,35.9875,36.0287,35.8223,34.4052,33.1874
CON8-0,Det,2,7,35.4445,27.9261,29.5169,28.3468,29.1434,32.3261,27.7543,28.6828,35.4445,27.4573,28.3468,28.3416,27.708,27.4902,27.4902,27.4959,28.1494,27.2311,27.2632,21.4476,21.2332
CON8-0,Det,3,7,29.6883,23.5308,27.4806,23.9365,27.0369,25.331,23.7847,24.375,27.4582,23.3443,23.4438,23.6432,22.7511,23.339,23.339,22.6256,23.492,23.2595,22.1073,18.5072,14.4591
CON8-0,Det,4,6,23.0264,18.8497,18.9684,18.6392,20.023,20.7633,23.0264,18.3599,23.0264,18.5837,18.6382,18.4597,18.3081,18.6355,18.6355,18.5971,18.6901,18.3331,18.24,13.7948,12.4347
CON8-0,Det,5,6,19.6574,14.6793,14.7089,14.5992,16.9622,15.0473,19.2677,14.6563,18.9272,14.4904,14.5992,13.9075,14.0874,14.5625,13.6426,13.3342,14.4378,14.3961,13.3181,10.9217,8.7098
CON8-0,Det,6,4,25.2822,22.8756,22.8628,22.8501,25.232,22.8384,25.2822,22.8628,19.8548,22.8501,22.8628,20.5193,19.5817,22.8628,19.0199,19.1001,22.9695,22.8695,19.0493,19.315,15.2284
CON8-0,Det,7,6,32.2907,27.7499,27.8585,27.8585,32.2907,28.0173,31.2312,27.8203,31.989,27.7992,27.8203,27.7968,27.8153,27.8056,27.8056,27.5075,27.895,27.6578,27.7576,19.7431,16.5255
CON8-0,Det,8,5,30.1633,26.7603,27.121,26.3661,28.2183,27.4348,26.7975,26.592,30.1633,26.185,26.3501,26.3801,26.3097,26.1673,26.1278,26.1278,26.268,26.1459,26.2165,21.902,21.8221
CON8-0,SAA,0,4,2.4512,2.2308,2.2491,2.2308,2.3923,2.2509,2.4512,2.2491,1.7822,2.2244,2.2254,1.8999,2.0342,2.253,1.5706,1.5706,2.4512,2.2267,1.4713,1.4317,0.6292
CON8-0,SAA,1,2,2.8146,2.6309,2.6155,2.6309,2.6203,2.6203,2.6203,2.6474,1.5588,2.6309,2.6309,1.7146,1.5187,2.6474,1.5558,1.5558,2.6471,2.6588,1.4604,1.667,0.4601
CON8-0,SAA,2,2,1.4184,1.4498,1.4342,1.4498,1.398,1.3645,1.3645,1.4342,0.7302,1.4498,1.4498,0.7303,0.7244,1.4342,0.7216,0.7216,1.5472,1.3475,0.7361,0.8437,0.1706
CON8-0,SAA,3,5,1.7842,1.4258,1.4345,1.4258,1.5934,1.3929,1.4282,1.446,1.0694,1.418,1.4547,1.2083,1.288,1.418,0.6814,0.6814,1.7842,1.3598,0.7112,1.0558,0.3376
CON8-0,SAA,4,4,1.8765,1.7516,1.7492,1.7516,1.7444,1.7267,1.7267,1.7468,1.2428,1.7109,1.7825,1.2276,1.4151,1.7444,1.3476,1.2199,1.8765,1.7212,1.2097,1.1505,0.4267
CON8-0,SAA,5,3,0.1375,0.1704,0.1103,0.1704,0.1375,0.1375,0.1375,0.1288,0.0926,0.1616,0.1303,0.1151,0.1375,0.1288,0.0742,0.0742,0.1375,0.1375,0.0696,0.0918,0.0344
CON8-0,SAA,6,5,0.3399,0.3295,0.4843,0.3295,0.2954,0.3229,0.3229,0.4669,0.1598,0.313,0.3195,0.1314,0.614,0.313,0.1754,0.1754,0.3399,0.3166,0.1029,0.2112,0.0475
CON8-0,SAA,7,2,0.0257,0.0257,0.0257,0.0257,0.0257,0.0257,0.0257,0.0257,0.0257,0.0257,0.0257,0.0257,0.0257,0.0257,0.0257,0.0257,0.0257,0.0257,0.0327,0.0149,0.0025
CON8-0,SAA,8,3,0.104,0.104,0.104,0.104,0.104,0.104,0.104,0.104,0.1004,0.104,0.104,0.0933,0.104,0.104,0.1039,0.1039,0.104,0.104,0.117,0.0606,0.0142
CON8-0,SAA,9,4,0.9107,0.616,0.616,0.616,0.7173,0.7792,0.7792,0.6369,0.333,0.7034,0.616,0.2629,0.713,0.6942,0.2525,0.2525,0.9107,0.6525,0.2572,0.5279,0.1218
CON8-0,SAA,10,3,0.0522,0.0562,0.0562,0.0562,0.0562,0.0522,0.0522,0.0562,0.04,0.0562,0.0562,0.04,0.0522,0.0562,0.1289,0.1289,0.0522,0.0522,0.0523,0.0301,0.007
CON8-0,SAA,11,5,0.3588,0.2804,0.383,0.2804,0.2897,0.3119,0.3119,0.2804,0.1617,0.2983,0.2935,0.1447,0.3588,0.2983,0.2119,0.2057,0.3588,0.3009,0.1243,0.225,0.0642
CON8-0,SAA,12,3,0.0261,0.0261,0.0261,0.0261,0.0261,0.0261,0.0261,0.0261,0.0261,0.0261,0.0261,0.0261,0.0261,0.0261,0.0261,0.0261,0.0261,0.0261,0.0261,0.0149,0.0037
CON8-0,SAA,13,3,3.3831,3.118,3.3188,3.118,3.1433,3.1433,3.1506,3.1684,2.265,3.0763,3.1173,2.2562,2.1389,3.0957,2.2974,2.343,3.1023,3.093,2.1671,2.1422,0.9979
CON8-0,SAA,14,2,1.8976,1.8927,1.8758,1.8927,1.9069,1.87,1.87,1.8963,1.7613,1.8927,1.8927,1.8345,1.8976,1.8963,1.8963,1.8491,1.8976,1.89,1.8116,1.1822,0.973
CON3-8,Det,0,14,41.2697,28.9099,32.0881,28.7951,30.8204,34.0229,28.6346,30.835,41.2697,28.9753,28.7354,28.5866,28.3169,28.921,28.2931,28.3751,28.9256,28.338,27.8637,24.3016,22.1346
CON3-8,Det,1,8,1.7969,1.4032,1.9142,1.4032,1.3939,1.297,1.3127,1.5799,0.4428,1.291,1.4082,0.4999,0.7801,1.3037,0.65,0.65,1.508,1.2736,0.4925,1.0393,0.2405
CON3-8,Det,2,18,43.7964,30.7057,32.1956,30.166,33.5131,34.7438,43.7403,31.717,43.603,29.5328,30.1445,30.166,30.6181,29.5467,29.5467,29.1136,30.0378,29.6898,29.1195,23.9018,21.5429
CON3-8,Det,3,10,0.0,0.0,0.0,0.0,0.0,0.0,0.0,0.0,0.0,0.0,0.0,0.0,0.0,0.0,0.0,0.0,0.0,0.0,0.0069,0.0,0.0
CON3-8,SAA,0,8,0.6985,0.4715,0.6295,0.4715,0.5522,0.6479,0.6745,0.625,0.2624,0.5566,0.4715,0.3929,0.7424,0.568,0.2555,0.2555,0.6985,0.4619,0.202,0.3933,0.0986
CON3-8,SAA,1,9,3.2874,2.4083,2.9931,2.4083,2.7076,2.7522,2.6446,2.6392,1.9846,2.2607,2.3315,1.845,1.4595,2.2935,1.2729,1.2782,2.4733,2.225,1.2255,1.9491,0.8077
CON3-8,SAA,2,10,3.1025,2.4039,3.2146,2.4039,2.6939,2.4277,2.5767,2.546,1.2904,2.1092,2.1817,1.3125,1.5366,2.1245,0.9458,0.9729,2.4149,2.0644,0.9467,1.7765,0.6035
CON3-8,SAA,3,13,1.902,1.7471,2.0154,1.7471,1.5102,1.902,1.902,1.8608,0.7343,1.3734,1.4065,0.7222,1.0952,1.3672,0.7471,0.7471,1.902,1.3988,0.6751,1.0926,0.3766
CON3-8,SAA,4,10,0.0771,0.0928,0.0928,0.0928,0.0552,0.0771,0.0771,0.0928,0.032,0.059,0.0604,0.0095,0.0771,0.0552,0.0095,0.0095,0.0771,0.0771,0.0417,0.0443,0.0095
