Instance,Plan,route,m,none_rec,v1_end_rec,v1_myo_rec,fb_tau_rec,pi1_rec,pi2_rec,pi3_rec,rollout_rec,restock_rec,thr_k_rec,ro_theta_rec,thr2_rec,dp3_n_rec,v2_lsm_rec,v2_act_rec,v2_cf_rec,dp_n_rec,dp_xl_rec,dp_xl3_rec,oracle_rec,oracle3_rec
CON3-0,Det,0,9,1.9683,1.3917,1.6534,1.3917,1.7366,1.7056,1.9683,1.4101,0.6886,1.4074,1.4089,0.6769,1.5138,1.3421,0.5316,0.5316,1.9683,1.2307,0.4751,1.0103,0.3168
CON3-0,Det,1,12,33.1358,20.9055,36.4339,20.5813,21.0308,21.489,18.9599,27.5128,21.9551,18.1763,20.1359,16.6651,13.7883,18.1162,16.0239,13.547,18.4771,18.0234,13.5339,15.4763,8.876
CON3-0,Det,2,12,1.4427,0.9166,1.6058,0.9166,0.9505,1.0633,1.3876,1.4353,0.5203,0.961,0.9413,0.5,1.3387,0.9762,0.5241,0.5467,1.6195,0.8579,0.4155,0.7355,0.2551
CON3-0,Det,3,17,87.41,78.0353,80.1756,76.9476,80.3062,78.9765,82.0171,79.1848,87.41,76.5834,77.0478,76.4207,76.5638,76.5186,76.5186,76.5186,76.5669,76.1423,76.4147,71.3287,70.5769
CON3-0,SAA,0,11,3.3959,2.3487,4.009,2.3487,2.8704,2.3436,2.4359,2.8615,1.3523,2.0534,2.3738,1.4023,1.9164,2.0534,1.058,1.058,2.5432,2.0144,0.8487,1.6753,0.5842
CON3-0,SAA,1,8,1.4391,0.9467,1.3252,0.9467,1.1058,1.1563,0.9383,1.1756,0.3732,0.8999,0.9459,0.3484,0.6793,0.9104,0.2754,0.2754,1.1044,0.9099,0.249,0.7889,0.176
CON3-0,SAA,2,11,1.4311,0.8443,1.754,0.8443,1.1074,1.1861,0.8585,1.3068,0.7193,0.8054,0.8521,0.7143,1.0932,0.8054,0.3152,0.3152,1.4311,0.8103,0.3259,0.682,0.2282
CON3-0,SAA,3,10,2.7992,2.0679,2.4297,2.0456,2.705,1.9498,1.9741,2.1942,1.2915,1.821,2.0573,1.2143,0.9233,1.8946,0.7526,0.7526,1.8731,1.7447,0.7152,1.4759,0.4303
CON3-0,SAA,4,10,5.0778,3.2214,4.1009,3.336,4.734,3.6073,4.8261,3.6969,3.49,3.4292,3.4526,2.8517,2.072,3.465,2.2343,2.2343,3.5418,3.116,1.8168,2.3171,0.9161
CON3-2,Det,0,3,0.0,0.0,0.0,0.0,0.0,0.0,0.0,0.0,0.0,0.0,0.0,0.0,0.0,0.0,0.0,0.0,0.0,0.0,0.0,0.0,0.0
CON3-2,Det,1,14,45.7969,25.2472,33.7029,24.3377,26.4814,37.3527,24.1715,31.9417,45.7969,23.5639,25.4738,24.3089,24.718,23.7056,23.6937,23.6815,24.0094,23.3812,23.5414,19.2929,18.8646
CON3-2,Det,2,16,48.1228,37.6503,40.2351,37.464,40.069,37.6936,37.9345,39.8105,47.9394,37.0962,38.3754,37.6784,37.4286,36.9906,36.8131,36.784,37.3868,37.0981,36.851,33.2189,32.0194
CON3-2,Det,3,17,40.9389,23.2788,28.3657,23.1064,25.3814,35.5462,40.9389,27.1167,38.9741,23.0015,22.9256,23.1569,23.4082,23.2598,23.2598,22.7788,23.2735,22.829,22.5952,15.5577,14.1183
CON3-2,SAA,0,9,0.476,0.3214,0.4544,0.3214,0.476,0.476,0.476,0.421,0.2353,0.3327,0.3184,0.1881,0.476,0.3327,0.2166,0.2166,0.476,0.3506,0.163,0.2408,0.0845
CON3-2,SAA,1,8,3.7885,2.6158,3.7007,2.6158,2.8269,2.5634,2.4136,3.511,1.3254,2.485,2.5438,1.2482,1.8275,2.5129,1.1566,1.2693,2.5911,2.3794,1.0569,1.8955,0.6556
CON3-2,SAA,2,13,0.7439,0.9095,1.4552,0.9095,0.5227,0.7289,0.7439,0.9254,0.2229,0.4524,0.4996,0.2952,1.2778,0.4629,0.2092,0.2092,0.7439,0.4541,0.2232,0.3709,0.1287
CON3-2,SAA,3,9,1.4678,1.355,1.5186,1.355,1.3539,1.1186,1.4939,1.3481,0.8748,1.084,1.3365,0.8767,1.0255,1.0682,0.4233,0.4233,1.1664,0.9765,0.3814,0.759,0.2124
CON3-2,SAA,4,11,1.5162,0.9998,1.6341,0.9998,1.3852,0.9162,0.9215,1.1736,0.5977,0.9269,0.9318,0.6075,1.0152,0.9386,0.3907,0.3907,1.1358,0.9435,0.4069,0.7845,0.2504
CON3-3,Det,0,3,0.0,0.0,0.0,0.0,0.0,0.0,0.0,0.0,0.0,0.0,0.0,0.0,0.0,0.0,0.0,0.0,0.0,0.0,0.0,0.0,0.0
CON3-3,Det,1,14,56.4933,30.9719,48.2133,30.362,32.0934,38.7004,29.3852,40.7601,48.4651,28.4579,30.6761,29.5113,26.4417,28.2414,28.2414,26.1589,28.3691,28.0148,25.5388,23.1965,18.4645
CON3-3,Det,2,14,35.5111,21.0061,26.917,20.8338,21.9929,29.4879,20.6441,24.7502,35.4476,20.2866,20.5608,20.38,19.7528,20.2339,19.4542,19.4584,20.5014,20.0911,19.5875,16.5544,14.4241
CON3-3,Det,3,19,62.3961,28.7629,32.9941,28.6001,32.5845,29.1747,32.5467,32.0407,59.9864,28.5418,28.4344,28.6251,28.7034,28.51,28.3458,28.3389,28.5883,28.3341,28.3198,22.7113,20.9961
CON3-3,SAA,0,7,3.6884,2.5239,3.2624,2.5239,2.7376,2.5986,2.3746,2.7989,1.0515,2.433,2.5239,0.8671,0.9843,2.418,0.9579,0.9579,2.4636,2.4592,0.8453,1.9896,0.4547
CON3-3,SAA,1,10,5.4435,3.9099,5.809,3.9099,5.4975,3.5483,3.9325,4.4016,2.3013,3.4516,3.7745,2.2968,1.9259,3.4947,1.7775,1.7811,3.6216,3.3989,1.7943,2.6946,1.0832
CON3-3,SAA,2,13,2.8776,2.097,4.4069,2.097,2.1949,2.1789,1.9633,3.1422,1.3566,1.8461,1.8197,1.3274,1.7469,1.827,0.8341,0.8141,2.2413,1.862,0.7956,1.4425,0.5225
CON3-3,SAA,3,11,2.42,1.9604,4.7446,1.9604,1.7597,1.8317,1.7093,2.2147,0.7267,1.8012,1.7839,0.7588,0.8035,1.8012,0.8071,0.8071,1.7715,1.7471,0.7465,1.3284,0.3389
CON3-3,SAA,4,9,3.0872,2.5015,3.5077,2.5015,2.1993,2.4822,2.2263,2.8625,1.1207,2.2702,2.4818,0.8852,1.0817,2.2535,0.9767,0.9616,2.4501,2.1736,0.7851,1.6778,0.4179
CON3-1,Det,0,20,40.2624,20.5108,31.7594,19.8717,21.3513,24.7157,23.4131,26.3366,39.226,19.1764,20.2355,19.4074,18.9718,19.1327,18.7807,18.6304,19.2532,18.8805,18.2687,15.7614,14.2143
CON3-1,Det,1,11,39.6798,23.4051,24.5384,22.5617,24.5165,27.3518,23.0433,24.3509,37.243,22.2811,22.9378,21.9231,21.1316,22.3356,21.2021,21.215,22.1094,22.0673,20.6153,18.6068,15.2872
CON3-1,Det,2,3,0.0,0.0,0.0,0.0,0.0,0.0,0.0,0.0,0.0,0.0,0.0,0.0,0.0,0.0,0.0,0.0,0.0,0.0,0.0,0.0,0.0
CON3-1,Det,3,16,69.3266,51.9632,55.1359,52.8014,53.6038,55.8149,52.4092,54.0059,69.3266,51.2481,52.694,52.8011,51.2839,51.3782,51.3782,51.3782,51.5655,51.0749,51.2736,42.8701,42.7724
CON3-1,SAA,0,14,1.762,1.1532,2.2919,1.1532,1.1605,1.1658,1.0732,1.592,0.531,1.1511,1.0083,0.5872,1.4911,1.1472,0.6844,0.6844,1.4747,0.9739,0.474,0.8656,0.3373
CON3-1,SAA,1,8,2.9213,2.1676,2.491,2.1154,2.7945,2.3274,2.0585,2.3321,1.259,2.0494,2.0956,1.1613,1.4563,2.0366,0.7969,0.788,2.1461,1.9373,0.7574,1.5725,0.4221
CON3-1,SAA,2,5,1.2931,0.9008,0.8509,0.9008,0.88,1.0916,0.9117,0.8509,0.2595,0.8619,0.9008,0.3052,0.6458,0.815,0.2412,0.2412,1.2931,0.8145,0.2588,0.7066,0.1575
CON3-1,SAA,3,10,4.0019,2.5365,3.9502,2.5396,3.8787,2.8431,4.0019,3.3591,1.9374,2.577,2.6201,2.0757,1.6443,2.5442,1.2792,1.3608,2.8655,2.4671,1.4049,1.8692,0.8431
CON3-1,SAA,4,13,2.4574,1.7179,2.3393,1.7179,1.9155,2.0971,2.1805,1.898,0.783,1.5726,1.6774,0.7719,1.1324,1.5708,0.7036,0.7036,1.7368,1.4656,0.7126,1.247,0.4347
CON3-6,Det,0,18,81.5871,54.9096,62.0319,54.4767,55.4934,71.4801,69.9369,58.0369,81.5871,54.1893,54.686,54.546,54.4567,54.123,54.1284,54.1284,54.3132,53.9134,53.4909,44.9577,44.8543
CON3-6,Det,1,12,11.0424,7.2317,9.6821,7.009,9.0167,9.1593,11.0424,8.7399,8.5571,6.8921,7.0114,6.6362,6.0457,6.9203,6.1814,5.7371,6.9222,6.8046,5.4023,5.1946,2.8736
CON3-6,Det,2,17,48.8358,25.096,27.8636,24.8418,26.5592,29.1213,48.6372,27.8698,46.3683,22.9348,24.4286,24.5194,23.7959,22.9214,22.8624,22.5034,23.0921,22.7717,22.2944,18.3615,16.2817
CON3-6,Det,3,3,0.0,0.0,0.0,0.0,0.0,0.0,0.0,0.0,0.0,0.0,0.0,0.0,0.0,0.0,0.0,0.0,0.0,0.0,0.0,0.0,0.0
CON3-6,SAA,0,9,0.2181,0.1657,0.5071,0.1657,0.1941,0.207,0.207,0.1986,0.1032,0.1752,0.1647,0.1151,0.2181,0.1606,0.0482,0.0482,0.2181,0.2148,0.0737,0.1173,0.028
CON3-6,SAA,1,8,1.2791,1.0147,1.007,1.0147,1.15,1.0128,1.2791,1.0124,0.517,0.9186,0.9606,0.4326,0.7556,0.9186,0.4177,0.4177,1.2791,0.9161,0.3378,0.6924,0.1708
CON3-6,SAA,2,10,0.3043,0.2745,0.2745,0.2745,0.3043,0.3043,0.3043,0.2885,0.2432,0.2586,0.2281,0.2745,0.3043,0.2421,0.1037,0.1037,0.3043,0.2115,0.1037,0.1552,0.0494
CON3-6,SAA,3,11,3.7566,2.5631,4.751,2.5188,3.2593,2.5198,3.5597,3.2683,2.5979,2.3783,2.3915,2.4047,2.0378,2.3779,1.3739,1.3525,2.6186,2.3179,1.1925,1.8261,0.7333
CON3-6,SAA,4,12,2.6794,1.9371,2.8021,1.9371,1.8256,2.1214,2.0003,2.3284,0.8239,1.6179,1.9148,0.8065,1.5634,1.6586,0.7795,0.7883,2.1715,1.5725,0.5784,1.363,0.4272
CON3-7,Det,0,13,26.9122,16.8595,19.7872,16.2873,17.9662,23.098,26.7831,19.5148,26.9122,16.0592,16.5604,16.2355,16.1457,16.0591,16.0254,16.0117,16.2021,15.7543,15.6979,12.8658,12.4798
CON3-7,Det,1,19,53.9088,30.1062,33.1076,29.9743,31.4951,38.7151,53.7376,33.0495,53.9088,28.4194,30.1986,29.9597,28.4078,28.1676,28.1676,28.1676,28.5637,27.7789,28.0784,19.8499,19.6667
CON3-7,Det,2,1,0.0,0.0,0.0,0.0,0.0,0.0,0.0,0.0,0.0,0.0,0.0,0.0,0.0,0.0,0.0,0.0,0.0,0.0,0.0,0.0,0.0
CON3-7,Det,3,17,60.1653,32.9725,40.5251,32.3562,35.7244,33.0976,31.5983,34.2941,59.326,30.3669,32.1217,32.0491,29.9509,29.9586,29.7926,29.7586,30.1181,30.0565,29.5797,23.4644,21.6555
CON3-7,SAA,0,10,1.1547,1.0587,1.36,1.0587,0.808,0.9973,1.1547,1.3201,0.4055,0.8901,1.0106,0.408,0.7551,0.8884,0.3499,0.3499,1.1882,0.7787,0.3734,0.5997,0.1806
CON3-7,SAA,1,7,0.0,0.0,0.0,0.0,0.0,0.0,0.0,0.0,0.0,0.0,0.0,0.0,0.0,0.0,0.0,0.0,0.0,0.0,0.0,0.0,0.0
CON3-7,SAA,2,12,0.9876,0.7152,1.001,0.7152,0.6588,0.9876,0.9876,0.8661,0.416,0.6722,0.692,0.352,0.9876,0.7039,0.3096,0.3096,0.9876,0.6429,0.3164,0.4837,0.1937
CON3-7,SAA,3,9,0.9607,0.8139,1.1177,0.8139,0.7785,0.862,0.8729,0.927,0.5162,0.8114,0.8255,0.3457,0.5122,0.8233,0.3168,0.3168,1.0183,0.7541,0.2691,0.5244,0.1231
CON3-7,SAA,4,12,3.4458,2.3784,3.8419,2.4209,3.1679,2.1631,2.3087,2.7103,1.5243,2.0558,2.3557,1.5013,1.8159,2.0368,0.9305,0.9419,2.442,2.0694,0.9088,1.6795,0.6145
CON3-5,Det,0,14,52.0447,28.8101,31.9079,28.5003,36.3016,32.6836,35.0649,31.8924,47.7581,28.8039,28.6193,28.2564,28.3605,28.182,28.0019,27.7557,29.3824,28.0589,28.0022,20.2702,16.9843
CON3-5,Det,1,19,83.9501,56.5552,57.8594,56.7931,58.071,59.4543,81.8775,57.3834,83.9501,56.6481,56.6068,56.4665,56.2806,56.022,56.022,56.022,56.3267,56.0698,55.7712,43.4554,42.7419
CON3-5,Det,2,15,48.7864,36.9049,37.9574,36.9118,38.1789,37.6924,48.7864,37.8264,48.8421,37.076,36.8548,36.9124,36.7872,36.8837,36.8837,36.7193,36.8468,36.7508,36.6809,29.7433,28.4588
CON3-5,Det,3,2,0.0,0.0,0.0,0.0,0.0,0.0,0.0,0.0,0.0,0.0,0.0,0.0,0.0,0.0,0.0,0.0,0.0,0.0,0.0,0.0,0.0
CON3-5,SAA,0,8,1.6889,1.4527,2.0935,1.4527,1.5269,1.3458,1.614,1.8098,1.1045,1.3402,1.4532,1.4416,0.9426,1.3232,0.6187,0.6187,1.4042,1.299,0.6344,0.9032,0.2558
CON3-5,SAA,1,8,1.7574,1.3334,1.6706,1.3334,1.3543,1.545,1.2584,1.4462,0.5332,1.2022,1.224,0.5666,0.9604,1.1872,0.5737,0.5737,1.4913,1.1322,0.3846,0.9394,0.2382
CON3-5,SAA,2,10,0.5731,0.7319,0.9438,0.7319,0.4385,0.4674,0.4422,0.7919,0.2909,0.3944,0.3949,0.2626,0.5731,0.3764,0.2128,0.211,0.5731,0.3625,0.2085,0.2807,0.1162
CON3-5,SAA,3,9,0.1351,0.2078,0.2229,0.2078,0.0977,0.1351,0.1351,0.2229,0.0672,0.1554,0.1114,0.066,0.1351,0.1113,0.091,0.091,0.1351,0.1702,0.1043,0.0739,0.0167
CON3-5,SAA,4,15,3.319,2.0203,4.3546,2.0203,2.5139,2.3408,2.6447,2.5463,1.4554,1.9371,1.9864,1.2549,1.9832,1.8951,1.0333,1.0292,2.4964,1.8475,0.9488,1.5206,0.6289
CON3-4,Det,0,2,0.0,0.0,0.0,0.0,0.0,0.0,0.0,0.0,0.0,0.0,0.0,0.0,0.0,0.0,0.0,0.0,0.0,0.0,0.0,0.0,0.0
CON3-4,Det,1,13,54.7666,28.6678,33.6995,28.4786,30.6858,37.4038,28.3599,30.4947,50.4295,27.9138,28.7345,28.1691,27.7036,27.83,27.83,26.9654,27.846,27.7905,27.1606,22.2636,18.5012
CON3-4,Det,2,22,93.8579,48.5403,50.1068,47.4448,47.42,58.8635,93.534,49.5412,93.8579,45.8035,45.9798,47.4524,48.4939,45.9303,45.9303,45.9303,46.1207,45.5424,45.5997,31.5963,30.7328
CON3-4,Det,3,13,45.083,25.8097,26.9347,25.8642,27.1613,26.8121,26.887,26.8661,45.083,25.7067,25.8172,25.8393,26.9763,25.6911,25.7008,25.6575,26.1312,25.5977,25.5132,19.057,18.1329
CON3-4,SAA,0,12,2.5775,2.5904,3.36,2.5073,2.5836,2.0628,2.544,2.5452,1.4844,2.0028,2.0212,1.5926,1.2143,2.0144,0.7628,0.7628,2.151,1.8565,0.7093,1.3746,0.4244
CON3-4,SAA,1,8,0.7061,0.5532,0.6658,0.5532,0.5643,0.7061,0.7061,0.5369,0.2554,0.5878,0.5369,0.2596,0.7061,0.5435,0.2816,0.2816,0.7061,0.5146,0.1665,0.3856,0.0869
CON3-4,SAA,2,9,1.826,1.446,2.5841,1.446,1.3562,1.4598,1.575,1.8502,0.7239,1.3823,1.4004,0.7049,1.1129,1.3823,0.6048,0.6048,1.9237,1.388,0.5163,0.9973,0.2913
CON3-4,SAA,3,9,1.9503,1.2939,1.6151,1.2939,1.3106,1.5483,1.5238,1.4626,0.4535,1.3177,1.2927,0.5046,1.0602,1.2776,0.5743,0.5743,1.3207,1.2106,0.4102,1.0433,0.2518
CON3-4,SAA,4,12,1.6,1.2319,1.9649,1.2319,1.3696,1.3287,1.2009,1.6611,0.7466,1.1712,1.1767,0.7633,1.6,1.1711,0.6235,0.6235,1.6,1.1375,0.4996,0.8144,0.2875
CON8-0,Det,0,5,26.0961,18.1612,19.455,18.1488,18.5284,21.3169,17.8698,18.5938,25.3813,17.731,18.1468,17.9223,17.8524,17.8384,17.4866,17.4921,17.7405,17.7088,17.3605,14.6057,12.847
CON8-0,Det,1,4,45.7508,44.6503,45.0786,44.7442,45.5923,44.6589,44.5981,44.728,45.0077,44.5777,44.7442,44.7468,44.6592,44.5777,44.2546,44.3248,44.6766,44.6911,44.656,42.7414,41.5236
CON8-0,Det,2,7,48.8179,30.5711,34.4566,30.1001,31.445,41.0074,29.9942,31.6416,48.8179,29.6328,30.6968,30.8643,29.9717,29.7908,29.7908,29.7964,30.8488,29.6366,29.5349,21.5633,21.3488
CON8-0,Det,3,7,37.8384,24.8251,31.3191,25.1651,28.8488,29.5629,25.6612,27.0137,33.8629,24.502,25.0678,24.9872,24.705,24.5163,24.5163,23.5685,24.9019,24.6039,23.7434,18.5072,14.4591
CON8-0,Det,4,6,25.1517,19.9261,19.5549,19.655,20.4771,22.4553,25.1517,19.655,25.1517,19.6088,19.655,19.464,19.3578,19.6008,19.6008,19.5267,19.6722,19.1794,19.0922,14.1743,12.8142
CON8-0,Det,5,6,21.4223,15.029,15.6272,15.058,17.4195,15.5767,20.9359,15.0449,20.215,14.9379,15.0449,14.2964,14.6005,14.9229,14.0134,13.6685,14.7575,14.7815,13.7841,10.9728,8.7608
CON8-0,Det,6,4,28.0033,24.466,24.7087,24.5418,27.8591,24.557,28.0033,24.5418,21.5686,24.5418,24.5418,22.2233,20.6954,24.5418,20.7428,20.8601,24.6578,24.6402,20.7168,20.6433,16.5568
CON8-0,Det,7,6,45.6668,31.8854,32.2861,32.1107,39.7558,31.9086,43.4319,31.9926,45.0287,32.106,32.0883,32.1107,32.3304,32.0802,31.6795,31.7407,32.4916,31.8577,31.8587,19.7431,16.5255
CON8-0,Det,8,5,38.6564,30.8222,31.6369,30.8009,32.9119,32.2132,31.4739,31.0008,38.6564,30.6361,30.8669,30.8211,31.0202,30.6361,30.6098,30.6098,31.0289,30.4927,30.6628,24.9865,24.9066
CON8-0,SAA,0,4,2.8369,2.4629,2.4404,2.4629,2.7501,2.5056,2.8369,2.4531,2.105,2.4853,2.4629,2.4259,2.3503,2.4586,1.6098,1.6098,2.5134,2.4083,1.5974,1.4317,0.6292
CON8-0,SAA,1,2,3.0056,2.7596,2.7937,2.7596,2.7635,2.7635,2.7635,2.7907,1.6084,2.7596,2.772,1.7518,1.5647,2.7907,1.8227,1.8131,2.7692,2.797,1.5362,1.667,0.4601
CON8-0,SAA,2,2,1.5325,1.5174,1.5174,1.5174,1.4677,1.6,1.6,1.5174,0.7619,1.5174,1.5174,0.7557,0.754,1.5174,0.7469,0.7469,1.6,1.4278,0.7557,0.8437,0.1706
CON8-0,SAA,3,5,2.0174,1.534,1.4593,1.534,1.793,1.4809,1.4748,1.562,1.3283,1.5367,1.531,1.3176,1.4766,1.5367,0.7433,0.7433,1.6936,1.4302,0.7073,1.0558,0.3376
CON8-0,SAA,4,4,2.2957,2.0741,2.1055,2.0741,2.0668,2.0491,2.0491,2.0212,1.2741,2.0139,2.1372,1.2316,1.4732,2.0139,1.5327,1.3948,2.2957,1.9791,1.2173,1.1505,0.4267
CON8-0,SAA,5,3,0.1558,0.1787,0.1186,0.1787,0.1558,0.1558,0.1558,0.129,0.1078,0.1684,0.1587,0.1787,0.1558,0.129,0.0863,0.0863,0.1558,0.1558,0.0764,0.0918,0.0344
CON8-0,SAA,6,5,0.3648,0.3429,0.5019,0.3429,0.305,0.3382,0.3382,0.4707,0.1674,0.3264,0.333,0.1352,0.614,0.3264,0.1754,0.1754,0.3648,0.319,0.1048,0.2112,0.0475
CON8-0,SAA,7,2,0.0267,0.0267,0.0267,0.0267,0.0267,0.0267,0.0267,0.0267,0.0267,0.0267,0.0267,0.0267,0.0267,0.0267,0.0267,0.0267,0.0267,0.0267,0.0327,0.0149,0.0025
CON8-0,SAA,8,3,0.1107,0.1107,0.1107,0.1107,0.1107,0.1107,0.1107,0.1107,0.1021,0.1107,0.1107,0.095,0.1107,0.1107,0.1056,0.1056,0.1107,0.1107,0.122,0.0606,0.0142
CON8-0,SAA,9,4,0.9564,0.6231,0.6231,0.6231,0.7404,0.8125,0.8125,0.6344,0.3467,0.7216,0.6231,0.2705,0.7374,0.7028,0.2548,0.2548,0.9564,0.664,0.2591,0.5279,0.1218
CON8-0,SAA,10,3,0.0557,0.058,0.058,0.058,0.058,0.0557,0.0557,0.058,0.0418,0.058,0.058,0.0418,0.0557,0.058,0.1289,0.1289,0.0557,0.0557,0.0523,0.0301,0.007
CON8-0,SAA,11,5,0.4065,0.411,0.3998,0.411,0.3172,0.3507,0.3507,0.3909,0.1792,0.3853,0.3922,0.1604,0.4065,0.3457,0.2573,0.226,0.4065,0.32,0.1243,0.225,0.0642
CON8-0,SAA,12,3,0.0279,0.0279,0.0279,0.0279,0.0279,0.0279,0.0279,0.0279,0.0279,0.0279,0.0279,0.0279,0.0279,0.0279,0.0279,0.0279,0.0279,0.0279,0.0279,0.0149,0.0037
CON8-0,SAA,13,3,4.0633,3.6153,3.7793,3.6153,3.4019,3.919,3.5691,3.6655,2.5679,3.5609,3.5991,2.5592,2.3961,3.5609,2.5365,2.6234,3.451,3.469,2.4723,2.1422,0.9979
CON8-0,SAA,14,2,2.1435,2.0789,2.0799,2.0789,2.1212,2.0197,2.0197,2.0789,1.9546,2.0789,2.0789,2.0843,2.1435,2.0789,2.0789,2.0201,2.1435,2.1043,1.9763,1.1822,0.973
CON8-1,Det,0,5,32.5591,25.9292,26.118,25.9126,28.3074,25.9601,26.116,26.1295,32.3244,26.0227,25.8981,25.9115,26.754,26.0026,25.9357,25.8591,26.1935,25.971,25.9382,20.5945,19.5274
CON8-1,Det,1,5,23.0564,20.3826,21.397,20.3331,21.4054,21.3209,21.1806,20.5354,18.1462,20.3,20.2132,17.0197,16.6296,20.2701,16.4719,16.4726,20.3218,20.2789,16.6123,17.4502,13.769
CON8-1,Det,2,3,17.0925,14.444,14.371,14.444,16.2406,14.2377,14.4725,14.3832,12.7467,14.419,14.4312,11.3338,11.5021,14.3997,13.294,11.3013,14.3392,14.2842,11.5541,9.3707,5.9066
CON8-1,Det,3,9,61.7132,36.3705,40.201,36.5442,38.7674,44.8221,36.452,38.464,61.7132,36.3716,36.5439,36.572,36.7646,36.2462,36.251,36.251,37.0579,35.8129,35.5729,26.224,25.9877
CON8-1,Det,4,6,33.1308,32.4372,32.5034,32.3364,33.0145,32.626,33.1308,32.5297,33.1614,32.3767,32.3364,32.3364,32.5314,32.3607,32.3607,32.3607,32.5552,32.2544,32.3658,30.1297,29.8653
CON8-1,Det,5,6,26.6838,20.3082,20.6451,20.2832,21.4052,24.2505,26.6838,20.498,26.6896,19.8885,20.2827,20.2828,19.9743,19.8236,19.8236,19.8287,20.0443,20.0661,20.0287,12.3606,12.2246
CON8-1,Det,6,6,35.9549,24.2945,28.8048,24.3568,29.1946,25.3606,24.2395,25.1721,30.1342,24.0487,24.3757,23.4232,22.3185,24.0365,24.0365,22.2613,24.0052,23.9468,21.9668,17.5622,12.502
CON8-1,Det,7,6,40.8773,30.4985,31.2408,30.2092,34.8026,39.6028,39.0125,30.5426,40.8773,29.0768,29.2563,30.2092,29.8655,29.0167,28.9628,29.0529,29.4031,29.2571,29.0043,18.1256,17.6255
CON8-1,Det,8,4,34.0484,33.0724,33.0952,33.0952,33.3936,33.0639,33.0382,33.1183,32.763,33.1525,33.0952,32.7875,32.7582,33.1183,33.1183,32.636,33.0081,33.0473,32.3411,28.8373,26.9046
CON8-1,SAA,0,3,1.7598,1.5096,1.5162,1.5096,1.5658,1.7277,1.7598,1.5443,0.6342,1.5497,1.5443,0.586,0.842,1.5443,0.7359,0.7359,1.7598,1.5119,0.6835,1.0307,0.2275
CON8-1,SAA,1,2,1.0498,1.075,1.0991,1.075,1.1129,1.0398,1.0398,1.0843,0.5996,1.075,1.075,0.5805,0.7098,1.0843,0.5901,0.5901,1.2342,0.9371,0.625,0.5784,0.124
CON8-1,SAA,2,4,2.5383,2.2763,2.2781,2.2763,2.1971,2.178,2.2385,2.2781,1.7361,2.2003,2.2763,1.7866,1.7626,2.2015,1.9396,1.7268,2.172,2.1575,1.6394,1.2476,0.621
CON8-1,SAA,3,6,2.8624,2.3006,3.3811,2.3006,2.3476,2.3317,2.2848,2.7656,1.1145,2.2776,2.2842,1.1044,1.2205,2.2463,0.9604,0.9803,2.235,2.2387,0.9879,1.5681,0.4395
CON8-1,SAA,4,6,3.1269,2.3605,2.7529,2.3605,2.9737,3.1269,3.1269,2.7693,1.9456,2.2729,2.3339,1.9546,1.8061,2.2744,1.6753,1.4957,2.4492,2.2956,1.5187,1.4883,0.6952
CON8-1,SAA,5,3,0.2866,0.2622,0.2622,0.2622,0.2604,0.2866,0.2866,0.2622,0.1652,0.2791,0.2622,0.1693,0.2866,0.2622,0.156,0.156,0.2866,0.2866,0.1643,0.1518,0.0415
CON8-1,SAA,6,4,4.8514,3.9552,4.4611,3.9552,4.6074,4.0545,4.0581,4.423,4.0348,4.1774,3.9552,3.6191,2.6431,4.1774,2.5771,2.3097,4.2388,4.0111,2.2841,2.5488,0.9786
CON8-1,SAA,7,4,0.2325,0.1651,0.2141,0.1651,0.2325,0.2325,0.2325,0.2141,0.2147,0.1948,0.1786,0.1651,0.2325,0.1937,0.117,0.117,0.2325,0.2325,0.1432,0.122,0.0321
CON8-1,SAA,8,4,1.0744,0.9813,0.9629,0.9813,0.9144,1.0744,1.0744,0.9928,0.5306,0.9059,0.9813,0.384,0.5132,0.9181,0.406,0.406,1.0744,0.9383,0.4386,0.5944,0.1445
CON8-1,SAA,9,2,1.8506,1.6376,1.6229,1.6376,1.6289,1.665,1.665,1.6229,0.7634,1.6376,1.6376,0.834,0.8624,1.6229,0.7372,0.7842,1.6289,1.591,0.714,1.0261,0.2162
CON8-1,SAA,10,3,0.7014,0.6533,0.9072,0.6533,0.6221,0.7014,0.7014,0.6533,0.5856,0.7011,0.6533,0.5769,0.8298,0.6533,0.485,0.4696,0.7014,0.7036,0.5194,0.3818,0.1274
CON8-1,SAA,11,3,2.3439,2.3029,2.3705,2.3029,2.261,2.4197,2.3954,2.34,1.6857,2.3338,2.3029,1.7358,1.6878,2.34,1.8075,1.7694,2.5004,2.3115,1.7254,1.2663,0.5496
CON8-1,SAA,12,3,3.2051,2.5411,2.7882,2.5411,2.7505,2.5339,2.7802,2.7727,1.8712,2.5637,2.5411,1.7413,1.3666,2.5482,1.4193,1.4193,2.5922,2.5711,1.3213,1.7318,0.4972
CON8-1,SAA,13,3,3.7692,2.9811,3.1534,2.9811,3.3639,3.5634,3.4724,2.9811,1.6442,2.9798,2.9811,1.6283,1.6537,2.9777,1.2015,1.2015,3.2322,3.0004,1.1883,2.1481,0.7265
CON3-9,Det,0,11,27.7541,17.0381,21.5405,16.7813,21.1748,19.8696,17.6574,18.1123,21.5745,15.7957,17.1188,17.1576,13.4681,15.7763,15.7763,13.3633,16.2084,15.9648,13.5197,12.4043,8.1419
CON3-9,Det,1,11,0.6284,0.5908,0.7438,0.5908,0.5506,0.6284,0.6284,0.6798,0.1998,0.3977,0.4981,0.1662,0.6284,0.4062,0.2324,0.1941,0.6284,0.4158,0.1736,0.3281,0.1069
CON3-9,Det,2,16,35.5621,19.8478,26.5062,19.7129,26.9164,20.442,31.894,22.4863,28.7925,19.6173,19.2854,19.9232,17.1815,19.3634,19.3634,17.0763,18.7302,18.598,16.3923,13.9828,10.1975
CON3-9,Det,3,12,9.8066,6.2108,7.6625,5.8531,8.3744,6.1864,9.8066,7.6296,6.4299,5.5025,5.9702,5.6411,5.566,5.4839,4.4235,3.8171,5.4859,5.4587,4.0355,4.385,2.4015
CON3-9,SAA,0,7,1.4174,1.1271,1.5535,1.1271,1.1087,0.9869,1.0424,1.2626,0.4411,0.9787,1.1233,0.4422,0.6888,0.9638,0.3432,0.3432,1.187,0.939,0.3165,0.7843,0.1677
CON3-9,SAA,1,12,2.8384,1.9138,3.2986,1.9138,1.9174,2.0613,2.5829,2.2648,0.7528,1.7672,1.8949,0.7725,1.4263,1.7722,0.724,0.724,2.0443,1.7412,0.6719,1.5064,0.4221
CON3-9,SAA,2,10,4.2666,3.0688,5.1207,3.0688,3.47,2.8907,2.6622,3.9789,1.7142,2.7156,2.8413,1.7829,1.5655,2.6903,1.1719,1.1809,2.8563,2.5937,1.1703,2.253,0.7308
CON3-9,SAA,3,10,0.2896,0.2674,0.5437,0.2674,0.2137,0.2896,0.2896,0.2799,0.1268,0.2158,0.2168,0.1921,0.2896,0.2156,0.1046,0.1046,0.2896,0.2226,0.0963,0.1488,0.0509
CON3-9,SAA,4,11,0.5835,0.5694,0.742,0.5694,0.4656,0.5835,0.5835,0.5383,0.3126,0.5921,0.4949,0.2842,0.5835,0.5359,0.1551,0.1551,0.5835,0.4519,0.1589,0.3215,0.0788
CON3-8,Det,0,14,56.1704,31.8386,36.7882,31.5902,33.7979,41.1954,31.8499,35.9022,55.1737,31.9133,32.0639,31.3473,31.3116,31.7845,31.3856,31.4062,31.9637,31.0988,31.073,26.2612,24.0943
CON3-8,Det,1,8,1.8769,1.411,1.9907,1.411,1.4287,1.3219,1.3307,1.584,0.4491,1.3084,1.4216,0.5112,0.793,1.3084,0.67,0.67,1.522,1.2893,0.4973,1.0393,0.2405
CON3-8,Det,2,18,64.6304,33.9174,35.8188,32.769,36.33,43.2064,64.5663,34.2848,61.5747,32.6805,33.4472,33.1224,33.1315,32.6023,32.4208,32.4102,33.1089,32.5163,32.2449,24.9634,22.6046
CON3-8,Det,3,10,0.0,0.0,0.0,0.0,0.0,0.0,0.0,0.0,0.0,0.0,0.0,0.0,0.0,0.0,0.0,0.0,0.0,0.0,0.0069,0.0,0.0
CON3-8,SAA,0,8,0.7343,0.4717,0.6309,0.4717,0.574,0.6777,0.7094,0.6258,0.278,0.5661,0.4851,0.3929,0.7773,0.5792,0.2667,0.2667,0.7343,0.4721,0.2082,0.3933,0.0986
CON3-8,SAA,1,9,3.9465,2.5218,3.4235,2.5218,3.0943,3.0344,2.8216,2.7024,1.7851,2.3854,2.522,1.8645,1.4995,2.3939,1.3524,1.3893,2.5468,2.2612,1.3074,1.9491,0.8077
CON3-8,SAA,2,10,3.4125,2.4268,4.3468,2.4268,3.0362,2.6057,2.7657,3.0853,1.3344,2.154,2.2938,1.3564,1.6625,2.154,0.9684,1.0067,2.4885,2.0887,0.9767,1.7765,0.6035
CON3-8,SAA,3,13,2.1417,1.7878,2.3147,1.7878,1.6098,2.1417,2.1417,1.9269,0.7568,1.4033,1.4847,0.7517,1.1211,1.385,0.7588,0.7588,1.9707,1.4667,0.6585,1.0926,0.3766
CON3-8,SAA,4,10,0.0805,0.0928,0.1279,0.0928,0.0564,0.0805,0.0805,0.0928,0.0332,0.059,0.0601,0.0095,0.0805,0.0564,0.0095,0.0095,0.0805,0.0805,0.0417,0.0443,0.0095
