Instance,Plan,route,m,none_rec,v1_end_rec,v1_myo_rec,fb_tau_rec,pi1_rec,pi2_rec,pi3_rec,rollout_rec,restock_rec,thr_k_rec,ro_theta_rec,thr2_rec,dp3_n_rec,v2_lsm_rec,v2_act_rec,v2_cf_rec,dp_n_rec,dp_xl_rec,dp_xl3_rec,oracle_rec,oracle3_rec
CON3-2,Det,0,3,0.0,0.0,0.0,0.0,0.0,0.0,0.0,0.0,0.0,0.0,0.0,0.0,0.0,0.0,0.0,0.0,0.0,0.0,0.0,0.0,0.0
CON3-2,Det,1,14,48.5057,26.2394,35.0153,25.797,27.2741,37.4128,24.7346,32.6846,48.5057,23.87,25.8514,25.7915,24.8963,23.9913,23.9577,23.9577,24.1602,23.5852,23.7613,19.2929,18.8646
CON3-2,Det,2,16,52.1938,39.2371,43.9288,39.0529,42.0061,39.4878,39.4199,41.4085,51.7156,38.6069,39.8576,39.1749,38.9358,38.4662,38.2884,38.2372,39.0665,38.4504,38.2103,34.3313,33.1317
CON3-2,Det,3,17,38.5557,22.9168,28.183,22.6868,24.7949,33.3544,38.5557,25.9554,36.9581,22.5839,22.7067,22.7039,22.9868,22.8372,22.8372,22.2983,22.8457,22.5197,22.1688,15.4487,14.0093
CON3-2,SAA,0,9,0.6176,0.3214,0.6042,0.3214,0.5792,0.6176,0.6176,0.487,0.1839,0.3502,0.322,0.1881,0.6176,0.3502,0.2341,0.2341,0.6176,0.3367,0.163,0.2408,0.0845
CON3-2,SAA,1,8,4.2641,2.6906,3.7381,2.6906,2.9555,2.6331,2.5204,3.7159,1.3468,2.5598,2.4801,1.2491,1.8391,2.5895,1.0678,1.2152,2.6526,2.4703,1.0588,1.8955,0.6556
CON3-2,SAA,2,13,0.905,0.9282,1.493,0.9282,0.5608,0.8822,0.905,0.9954,0.2286,0.4734,0.4933,0.3215,1.3256,0.4933,0.2147,0.2147,0.905,0.4752,0.2232,0.3709,0.1287
CON3-2,SAA,3,9,1.8946,1.3997,1.5461,1.3997,1.6232,1.16,1.807,1.5281,0.9385,1.1208,1.3828,1.0018,1.0481,1.105,0.4742,0.4742,1.2449,1.0588,0.3717,0.759,0.2124
CON3-2,SAA,4,11,1.9785,1.0537,1.8583,1.0537,1.4887,0.9783,1.0273,1.652,0.6153,1.0161,1.0002,0.6251,1.096,1.0161,0.426,0.426,1.3105,0.8781,0.4335,0.7845,0.2504
CON3-3,Det,0,3,0.0,0.0,0.0,0.0,0.0,0.0,0.0,0.0,0.0,0.0,0.0,0.0,0.0,0.0,0.0,0.0,0.0,0.0,0.0,0.0,0.0
CON3-3,Det,1,14,56.1377,31.7014,48.197,31.0453,31.7497,37.3393,29.6033,41.3795,49.266,28.3941,30.0884,29.268,27.1589,28.2304,28.2304,26.1139,28.3846,28.1413,25.6907,23.1965,18.4645
CON3-3,Det,2,14,41.6943,21.4787,27.2804,21.2272,22.6452,31.9453,21.2399,25.7436,41.5462,20.7153,21.2753,21.0524,20.3453,20.6404,20.0671,19.958,20.9079,20.6146,19.9725,16.6195,14.4892
CON3-3,Det,3,19,61.6354,28.7675,34.6391,28.6572,32.4569,29.0896,32.5667,32.1413,59.8816,28.5282,28.6236,28.6836,28.7279,28.4442,28.3517,28.2595,28.6891,28.3202,28.3753,22.6899,20.9747
CON3-3,SAA,0,7,4.9139,2.8185,3.4434,2.8185,3.0053,2.8079,2.6006,3.4269,1.1346,2.7088,2.7965,0.9024,1.0433,2.7152,1.0713,1.0713,2.6085,2.6473,0.8568,1.9896,0.4547
CON3-3,SAA,1,10,6.4088,4.261,6.391,4.261,5.8195,3.7983,4.281,4.7462,2.4249,3.6916,4.1272,2.3672,2.0167,3.7339,1.8819,2.0566,3.9591,3.6132,1.821,2.6946,1.0832
CON3-3,SAA,2,13,3.5912,2.1855,4.417,2.1855,2.3815,2.3553,2.1252,3.656,1.5281,1.9566,1.8807,1.3439,1.77,1.9526,0.869,0.8628,2.2677,1.8825,0.8065,1.4425,0.5225
CON3-3,SAA,3,11,3.1659,2.1482,4.7715,2.1482,2.046,2.209,1.8381,3.1598,0.7748,1.9686,1.9874,0.8068,0.8724,1.9363,0.9021,0.9021,1.939,1.997,0.838,1.3284,0.3389
CON3-3,SAA,4,9,4.0313,2.6805,3.91,2.6805,2.3647,2.7657,2.4332,3.271,1.2963,2.4625,2.7014,0.9479,1.1613,2.4458,1.0783,1.0989,2.5476,2.3802,0.8908,1.6778,0.4179
CON3-0,Det,0,9,2.5449,1.4608,1.7678,1.4608,1.8987,2.1343,2.5449,1.6864,0.7283,1.5899,1.4448,1.025,1.5608,1.4085,0.5614,0.5614,2.0755,1.3189,0.5133,1.0103,0.3168
CON3-0,Det,1,12,37.4025,21.7037,36.5497,21.7621,21.3184,21.74,19.8652,29.0325,24.9361,19.0857,19.6281,17.6839,14.4103,18.9611,17.262,14.2558,18.9404,18.3175,13.8828,15.4763,8.876
CON3-0,Det,2,12,1.8606,0.9261,2.087,0.9261,0.9916,1.2581,1.7487,1.6309,0.5799,1.0235,0.9463,0.5501,1.4989,1.0383,0.5951,0.6256,1.7797,0.9065,0.4023,0.7355,0.2551
CON3-0,Det,3,17,80.2204,71.9557,74.1147,70.8136,74.0473,72.7022,75.0912,73.1249,80.2204,70.4,70.3277,70.278,70.3306,70.3365,70.3365,70.3365,70.231,69.9868,70.1777,65.268,64.5162
CON3-0,SAA,0,11,3.82,2.406,4.6499,2.406,3.0509,2.5085,2.5957,3.3218,1.3563,2.2959,2.3797,1.4033,1.9263,2.2797,1.0784,1.0784,2.6454,2.092,0.862,1.6753,0.5842
CON3-0,SAA,1,8,1.9558,0.9564,1.5692,0.9564,1.2007,1.5424,1.1505,1.4156,0.3823,0.9456,0.9557,0.4777,0.7429,0.9231,0.2754,0.2754,1.244,0.9197,0.2775,0.7889,0.176
CON3-0,SAA,2,11,1.615,0.8471,1.754,0.8471,1.065,1.2265,0.8681,1.2993,0.7468,0.8274,0.8442,0.7281,1.1335,0.8274,0.318,0.318,1.6317,0.8131,0.3286,0.682,0.2282
CON3-0,SAA,3,10,3.6792,2.2895,2.9467,2.248,3.3723,2.0274,2.2762,2.436,1.2904,2.0412,2.2258,1.3466,0.9323,2.0644,0.7669,0.7669,2.0289,1.9869,0.7703,1.4759,0.4303
CON3-0,SAA,4,10,5.334,3.2941,4.1252,3.3963,4.6348,3.7839,5.0846,3.6941,3.5207,3.2749,3.3602,2.8718,2.0625,3.236,2.2594,2.2594,3.7844,3.1587,1.871,2.3171,0.9161
CON3-1,Det,0,20,41.4232,21.2812,32.4453,20.2504,21.3191,24.3411,23.2481,27.5335,40.4052,19.411,20.1784,19.5571,19.0569,19.2852,18.7587,18.7115,19.3331,19.0095,18.3524,15.7614,14.2143
CON3-1,Det,1,11,46.4986,23.8403,25.9765,23.3556,24.9703,29.1355,23.5814,24.8865,42.9031,22.928,23.3776,22.5753,22.0478,22.9079,22.1089,21.894,23.0312,22.8202,21.2026,18.8766,15.557
CON3-1,Det,2,3,0.0,0.0,0.0,0.0,0.0,0.0,0.0,0.0,0.0,0.0,0.0,0.0,0.0,0.0,0.0,0.0,0.0,0.0,0.0,0.0,0.0
CON3-1,Det,3,16,65.9933,50.3296,53.067,50.279,51.3654,52.9249,50.0697,52.0612,65.9933,49.0647,50.2528,50.2788,49.1601,49.0423,49.0423,49.0423,49.3167,49.0265,48.9868,40.877,40.7794
CON3-1,SAA,0,14,2.0639,1.1532,2.2919,1.1532,1.1884,1.1843,1.0526,1.6917,0.5369,1.182,0.9974,0.6345,1.466,1.1869,0.7154,0.7154,1.6579,1.0002,0.4891,0.8656,0.3373
CON3-1,SAA,1,8,3.8367,2.4671,2.8042,2.3776,3.2064,2.7009,2.2743,2.7711,1.414,2.1723,2.3278,1.2494,1.6023,2.1576,0.8254,0.8068,2.4129,2.0224,0.8133,1.5725,0.4221
CON3-1,SAA,2,5,1.7427,0.8485,0.8704,0.8485,0.9634,1.3806,1.0244,0.8701,0.3268,0.8692,0.8485,0.2874,0.6458,0.8252,0.2602,0.2602,1.7427,0.8494,0.2546,0.7066,0.1575
CON3-1,SAA,3,10,4.4767,2.6758,3.9562,2.6712,3.9121,3.0236,4.4767,3.6196,1.9746,2.6833,2.7928,2.0906,1.7732,2.5727,1.3014,1.383,2.9812,2.4957,1.4225,1.8692,0.8431
CON3-1,SAA,4,13,3.1325,1.7362,2.966,1.7362,2.0051,2.495,2.64,2.1673,0.8187,1.6172,1.6026,0.8007,1.2773,1.6164,0.7571,0.7571,1.7829,1.5046,0.6445,1.247,0.4347
CON3-5,Det,0,14,53.5653,29.1355,32.8946,28.7007,36.3083,32.7899,35.1141,31.9812,49.1844,28.8982,28.9543,28.4476,28.4761,28.2833,27.9755,27.9056,29.615,28.132,28.1515,20.2702,16.9843
CON3-5,Det,1,19,74.2198,53.0002,54.4537,53.249,54.3743,55.0798,72.3711,53.403,74.2198,52.5737,53.2875,52.8833,52.6269,52.2408,52.2408,52.2408,52.2712,52.1954,52.3285,40.5692,39.8558
CON3-5,Det,2,15,53.3346,39.4464,39.6864,38.4414,39.6494,39.324,53.3346,39.6841,53.035,38.4566,38.4262,38.442,38.883,38.4766,38.4231,38.311,38.4905,38.4249,38.367,31.0532,29.7687
CON3-5,Det,3,2,0.0,0.0,0.0,0.0,0.0,0.0,0.0,0.0,0.0,0.0,0.0,0.0,0.0,0.0,0.0,0.0,0.0,0.0,0.0,0.0,0.0
CON3-5,SAA,0,8,2.2189,1.598,2.2701,1.598,1.8437,1.508,1.9692,2.1461,1.4542,1.4698,1.598,1.5683,0.9509,1.4525,0.652,0.652,1.5245,1.415,0.7144,0.9032,0.2558
CON3-5,SAA,1,8,2.3344,1.4716,1.7531,1.4716,1.4071,1.8393,1.5036,1.7531,0.6712,1.3681,1.3585,0.6148,0.9907,1.353,0.6753,0.6753,1.6301,1.1507,0.408,0.9394,0.2382
CON3-5,SAA,2,10,0.6733,0.7372,1.099,0.7372,0.465,0.529,0.5,0.901,0.3173,0.405,0.3978,0.2837,0.6733,0.387,0.2234,0.2215,0.6733,0.3677,0.2137,0.2807,0.1162
CON3-5,SAA,3,9,0.1819,0.2266,0.2418,0.2266,0.1165,0.1819,0.1819,0.2418,0.086,0.1833,0.1393,0.0848,0.1819,0.1393,0.1219,0.1219,0.1819,0.1981,0.1323,0.0739,0.0167
CON3-5,SAA,4,15,3.6416,2.0358,4.3546,2.0358,2.5007,2.4453,2.7773,3.0102,1.4606,1.9519,1.9141,1.2469,2.0272,1.9025,1.0644,1.0604,2.3736,1.9018,0.9134,1.5206,0.6289
CON3-4,Det,0,2,0.0,0.0,0.0,0.0,0.0,0.0,0.0,0.0,0.0,0.0,0.0,0.0,0.0,0.0,0.0,0.0,0.0,0.0,0.0,0.0,0.0
CON3-4,Det,1,13,55.1379,28.9843,33.6884,28.6951,30.6369,37.0974,28.4973,31.2884,52.2069,28.0443,28.8192,28.107,27.719,27.9455,27.9455,26.9627,28.2094,27.788,27.22,22.2199,18.4574
CON3-4,Det,2,22,83.3099,46.9864,49.6736,46.2493,46.6586,57.0509,82.7263,46.9035,83.3099,45.0122,46.5186,46.2569,47.6139,44.9172,44.9172,44.9172,45.1168,44.705,44.7382,31.5558,30.6923
CON3-4,Det,3,13,51.1343,26.2725,28.1405,26.2836,28.3797,27.6795,27.2877,27.299,51.1343,26.1855,26.2646,26.2395,26.4748,25.9868,26.0395,25.9943,26.228,25.8631,25.8148,19.1411,18.2169
CON3-4,SAA,0,12,3.2441,2.8401,3.4434,2.724,3.2245,2.2138,3.1966,2.8246,1.6716,2.0417,2.2692,1.8319,1.2836,2.1468,0.7688,0.7688,2.245,1.9603,0.7429,1.3746,0.4244
CON3-4,SAA,1,8,0.9496,0.5888,0.6788,0.5888,0.7378,0.9496,0.7284,0.6762,0.3,0.6414,0.5725,0.2297,0.9496,0.5972,0.3443,0.3443,0.9496,0.5348,0.1756,0.3856,0.0869
CON3-4,SAA,2,9,2.3116,1.5586,2.6688,1.5586,1.4626,1.6405,1.7922,2.2269,0.8254,1.4917,1.5462,0.7977,1.2001,1.4917,0.6414,0.6414,2.0196,1.4772,0.5629,0.9973,0.2913
CON3-4,SAA,3,9,2.5682,1.385,1.7801,1.385,1.4535,1.8581,1.8151,1.661,0.4715,1.4341,1.4063,0.5668,1.0589,1.3669,0.6724,0.6724,1.4284,1.3269,0.4286,1.0433,0.2518
CON3-4,SAA,4,12,2.0092,1.2811,2.1006,1.2811,1.6305,1.5777,1.3729,1.8754,0.7706,1.2342,1.2529,0.7873,1.4718,1.2341,0.6865,0.6865,1.9788,1.1487,0.5116,0.8144,0.2875
CON3-7,Det,0,13,31.0129,17.4677,20.6948,17.2802,18.4784,25.2163,30.6093,19.998,31.0129,16.3491,17.0803,17.2802,16.6551,16.3623,16.3781,16.3149,16.4677,16.2181,16.0903,13.0138,12.6277
CON3-7,Det,1,19,52.4823,30.0533,33.1362,29.8454,31.3364,37.6339,52.087,33.0568,52.4823,28.2631,30.0068,29.8151,28.3147,28.029,28.029,28.029,28.3989,27.6215,27.8895,19.8327,19.6495
CON3-7,Det,2,1,0.0,0.0,0.0,0.0,0.0,0.0,0.0,0.0,0.0,0.0,0.0,0.0,0.0,0.0,0.0,0.0,0.0,0.0,0.0,0.0,0.0
CON3-7,Det,3,17,60.3083,33.0761,40.5932,32.6557,35.6198,32.9189,31.7696,34.9708,60.0478,30.131,32.0901,32.4906,29.7777,30.0936,30.0936,29.962,30.1418,29.8448,29.8742,23.449,21.6401
CON3-7,SAA,0,10,1.4863,1.076,1.9613,1.076,0.8548,1.2273,1.4863,1.3774,0.4138,0.9194,1.0797,0.4163,0.9201,0.9189,0.3712,0.3712,1.4707,0.8553,0.3734,0.5997,0.1806
CON3-7,SAA,1,7,0.0,0.0,0.0,0.0,0.0,0.0,0.0,0.0,0.0,0.0,0.0,0.0,0.0,0.0,0.0,0.0,0.0,0.0,0.0,0.0,0.0
CON3-7,SAA,2,12,1.1468,0.7482,1.0947,0.7482,0.705,1.1468,1.1468,0.9967,0.416,0.7109,0.7432,0.352,0.9891,0.7091,0.3146,0.3146,1.1468,0.6627,0.3164,0.4837,0.1937
CON3-7,SAA,3,9,1.2819,0.9444,1.2165,0.9444,0.9158,1.101,0.9708,1.1825,0.6535,0.9588,0.9444,0.3472,0.5633,0.9801,0.3454,0.3454,1.0952,0.7913,0.2869,0.5244,0.1231
CON3-7,SAA,4,12,3.9999,2.5466,3.9905,2.5749,3.2041,2.1983,2.5508,3.405,1.5428,2.1103,2.4849,1.5175,1.9208,2.0952,0.985,0.9964,2.4849,2.1619,0.9322,1.6795,0.6145
CON3-6,Det,0,18,75.4733,52.0804,56.1892,51.6148,52.5909,65.6265,64.3697,55.3998,75.4733,51.1674,51.5847,51.6427,51.0871,51.1354,51.1025,51.1025,52.0456,50.7194,50.8601,42.2582,42.1549
CON3-6,Det,1,12,13.2919,7.7452,11.4835,7.593,9.0043,10.182,13.2919,9.7509,9.7537,7.2095,7.6434,6.7962,6.2913,7.2954,6.8156,6.2052,7.184,7.1561,5.8105,5.1946,2.8736
CON3-6,Det,2,17,51.5024,25.3036,28.3184,24.9825,26.6398,29.2282,51.1373,27.9088,48.9208,23.1751,24.5763,25.3915,23.9605,23.1389,22.8972,22.8815,23.3151,22.9643,22.6554,18.3615,16.2817
CON3-6,Det,3,3,0.0,0.0,0.0,0.0,0.0,0.0,0.0,0.0,0.0,0.0,0.0,0.0,0.0,0.0,0.0,0.0,0.0,0.0,0.0,0.0,0.0
CON3-6,SAA,0,9,0.293,0.1749,0.5093,0.1749,0.1992,0.2722,0.2722,0.5084,0.1032,0.1844,0.1929,0.143,0.6293,0.1698,0.0482,0.0482,0.293,0.2436,0.0783,0.1173,0.028
CON3-6,SAA,1,8,1.6792,1.1239,1.1141,1.1239,1.3896,1.2014,1.6792,1.0983,0.6059,1.005,1.1183,0.4589,0.7556,1.0029,0.49,0.49,1.6792,1.0575,0.3655,0.6924,0.1708
CON3-6,SAA,2,10,0.3904,0.279,0.2974,0.279,0.3904,0.3904,0.3904,0.279,0.2567,0.263,0.2415,0.279,0.3904,0.2325,0.1081,0.1081,0.3904,0.225,0.1081,0.1552,0.0494
CON3-6,SAA,3,11,4.3877,2.6968,4.9459,2.5803,3.6323,2.6597,4.0106,3.5419,2.6975,2.5437,2.6008,2.4605,2.1953,2.4885,1.4025,1.4126,2.7838,2.2979,1.2315,1.8261,0.7333
CON3-6,SAA,4,12,3.2646,2.1183,3.6988,2.1183,1.8885,2.2886,2.1087,2.5736,0.8382,1.6955,1.9263,0.8977,1.598,1.7617,0.7531,0.7619,2.5019,1.6398,0.6491,1.363,0.4272
CON8-1,Det,0,5,40.2045,28.9895,29.1597,28.8391,31.4397,28.8324,29.0365,28.9671,39.5766,28.8505,28.7772,28.7866,29.3158,28.7714,28.7714,28.7286,28.7971,28.8694,28.9861,22.3345,21.2674
CON8-1,Det,1,5,28.7484,23.377,24.2656,23.2803,24.2023,25.0903,24.4201,24.1692,21.4716,23.3827,23.4496,19.9257,19.3283,23.3876,19.229,19.2296,23.3544,23.1516,19.1793,19.7502,16.0689
CON8-1,Det,2,3,22.6969,16.2218,16.2218,16.2218,20.2336,16.3071,16.4884,16.2218,15.8729,16.1995,16.2218,13.3386,13.1628,16.2218,16.2218,13.3443,16.2257,16.0806,13.3409,9.3707,5.9066
CON8-1,Det,3,9,62.0803,36.4441,40.1828,36.6537,38.7043,44.5637,36.5478,38.5737,62.0803,36.3632,36.674,36.6819,36.8106,36.2581,36.2518,36.2581,36.6616,36.0274,35.8187,26.1699,25.9337
CON8-1,Det,4,6,39.5006,37.9936,38.0646,37.9658,39.1855,38.4755,39.5006,38.0143,39.4999,37.8661,37.9658,38.0205,37.9565,37.897,37.897,37.897,38.2693,37.6181,37.7063,34.8491,34.5847
CON8-1,Det,5,6,31.0579,21.4512,22.4924,21.3205,22.4011,27.2248,31.0579,22.4656,31.0577,21.1176,21.3035,21.6742,21.4043,21.2646,21.2646,21.2646,21.6721,21.1427,21.3903,12.3606,12.2246
CON8-1,Det,6,6,41.9836,25.1345,29.3778,24.9157,30.6231,26.8101,25.1543,28.8935,33.9714,25.1593,24.891,24.2779,23.0369,24.6495,24.955,22.9076,24.8678,24.7986,22.8992,17.5622,12.502
CON8-1,Det,7,6,43.8102,30.9598,31.5726,31.0336,34.8772,41.6161,41.1478,31.5585,43.7822,29.5337,30.984,30.9607,30.8629,29.6008,29.5378,29.5949,30.2688,29.8831,29.5568,18.1256,17.6255
CON8-1,Det,8,4,43.9081,40.4605,40.4602,40.4628,40.9426,40.6526,40.7825,40.4364,41.5965,40.4942,40.4628,40.3062,40.4292,40.4602,40.0571,40.266,40.4838,40.3634,40.0831,35.2502,33.3175
CON8-1,SAA,0,3,2.3036,1.673,1.6642,1.673,1.8109,1.9258,2.3036,1.6615,0.6528,1.673,1.673,0.5956,0.8874,1.7837,0.8028,0.8028,1.857,1.6569,0.7469,1.0307,0.2275
CON8-1,SAA,1,2,1.4118,1.2613,1.2613,1.2613,1.2613,1.6504,1.6504,1.2613,0.711,1.2613,1.2613,0.6919,0.7747,1.2613,0.7014,0.7014,1.3734,1.233,0.7618,0.5784,0.124
CON8-1,SAA,2,4,2.9236,2.4962,2.4962,2.4962,2.4544,2.4067,2.5126,2.4962,1.8377,2.4344,2.5143,2.0047,1.885,2.4406,2.1385,1.9324,2.3447,2.3638,1.7898,1.2476,0.621
CON8-1,SAA,3,6,3.7147,2.802,4.0118,2.802,2.4969,2.526,2.5715,3.4168,1.1738,2.4548,2.7686,1.1932,1.2572,2.4457,1.0669,1.0583,2.8734,2.4886,1.0492,1.5681,0.4395
CON8-1,SAA,4,6,3.5279,2.5343,2.8536,2.5343,3.2662,3.5279,3.5279,2.8536,1.9963,2.417,2.5343,2.0848,1.8848,2.4243,1.7758,1.5987,2.6005,2.442,1.6181,1.4883,0.6952
CON8-1,SAA,5,3,0.3535,0.292,0.292,0.292,0.2975,0.3535,0.3535,0.292,0.1801,0.3089,0.3089,0.1916,0.3535,0.292,0.1708,0.1708,0.3535,0.292,0.194,0.1518,0.0415
CON8-1,SAA,6,4,5.8494,4.33,4.6932,4.33,5.3612,4.3841,4.4377,4.6771,4.1869,4.4973,4.33,3.8264,2.7417,4.4973,2.7319,2.4645,4.4525,4.3576,2.4627,2.5488,0.9786
CON8-1,SAA,7,4,0.3026,0.1912,0.3236,0.1912,0.3026,0.3026,0.3026,0.3236,0.2872,0.289,0.2132,0.1912,0.3026,0.3117,0.1257,0.1257,0.3026,0.2511,0.1605,0.122,0.0321
CON8-1,SAA,8,4,1.4277,1.0727,1.0727,1.0727,1.0507,1.4277,1.4277,1.0727,0.5851,1.0605,1.0727,0.3931,0.5301,1.0301,0.5792,0.4332,1.1238,1.0472,0.4581,0.5944,0.1445
CON8-1,SAA,9,2,2.5129,1.9352,1.9352,1.9352,1.969,1.9702,1.9702,1.9352,0.8201,1.9352,1.9352,0.9002,0.9003,1.9352,0.8064,0.8651,1.9601,1.9403,0.8151,1.0261,0.2162
CON8-1,SAA,10,3,0.9034,1.0661,1.0661,1.0661,0.7736,0.9034,0.9034,1.0661,0.6781,1.0661,1.0661,0.6695,0.8124,1.0661,0.5618,0.5271,0.9034,0.8075,0.5618,0.3818,0.1274
CON8-1,SAA,11,3,3.1048,2.8838,2.9584,2.8838,2.9921,3.0808,3.1295,2.9584,2.1424,2.8838,2.8682,2.0677,2.1554,2.8529,2.2226,2.1927,2.9755,2.9479,2.1397,1.2663,0.5496
CON8-1,SAA,12,3,4.1457,3.0006,3.1144,3.0006,3.2329,3.0012,3.0616,3.0789,2.2999,3.0789,3.0006,2.0832,1.5194,3.0789,1.3462,1.3462,2.8986,2.8566,1.4556,1.7318,0.4972
CON8-1,SAA,13,3,4.8611,3.4588,3.4588,3.4588,3.7713,4.4977,4.329,3.4813,1.8111,3.4369,3.4588,1.7826,1.9662,3.4642,1.2964,1.2964,3.4051,3.3178,1.3001,2.2175,0.7959
CON8-0,Det,0,5,34.6757,19.1261,20.2622,19.1674,19.6487,23.8411,19.3394,20.2555,33.5124,18.8211,19.1674,19.1218,19.2064,18.8059,18.8059,19.2287,19.0093,18.8568,18.8415,15.098,13.3392
CON8-0,Det,1,4,51.906,49.9921,50.6777,50.0132,51.244,50.039,49.9834,50.0093,50.7887,49.9433,49.8862,50.0132,49.788,49.9433,49.5158,49.5574,50.0424,49.9939,49.6836,47.2397,46.0219
CON8-0,Det,2,7,50.8039,30.8278,34.7727,31.0921,31.7924,41.8052,30.3162,34.5276,50.8039,29.9969,30.9169,31.0583,30.4636,29.9941,29.9941,29.9997,30.9665,29.81,29.8971,21.5539,21.3394
CON8-0,Det,3,7,42.1084,25.5885,31.6669,26.0911,29.2061,30.354,26.3753,28.3726,37.0601,25.297,25.4504,25.382,25.1956,25.5459,25.5459,24.0266,25.5752,25.1367,24.1312,18.5072,14.4591
CON8-0,Det,4,6,31.8465,21.421,21.8097,21.498,22.6339,26.7416,31.8465,21.7752,31.6658,21.3288,21.498,21.3837,21.2396,21.3288,21.1429,21.1685,21.3881,21.0706,21.0952,14.9266,13.5665
CON8-0,Det,5,6,27.2634,15.9661,16.7022,16.3156,18.7134,17.1365,26.5549,16.7265,25.4124,15.8315,16.2932,15.1935,15.7624,15.8315,14.7797,14.9001,15.6983,15.5561,14.9556,11.0621,8.8502
CON8-0,Det,6,4,35.1806,28.7668,28.8029,28.8029,32.0683,28.7823,35.1806,28.8029,25.6582,28.8029,28.8029,26.5809,25.1352,28.8029,25.1991,25.2325,28.762,28.8484,25.156,23.9663,19.8798
CON8-0,Det,7,6,46.3512,32.4062,32.4162,32.3525,39.8004,32.1318,44.0815,32.4392,45.5648,32.3517,32.3829,32.3525,32.3488,32.3215,31.9186,31.9199,32.5486,32.0523,32.0252,19.7431,16.5255
CON8-0,Det,8,5,42.9606,32.115,32.6621,32.0342,34.1278,33.4668,32.8471,32.4848,42.9606,31.7442,32.0342,31.9998,32.1933,31.6529,31.6266,31.6266,31.7642,31.8214,31.7651,25.3858,25.3059
CON8-0,SAA,0,4,3.4655,2.7226,2.6912,2.7226,3.1693,2.9728,3.4655,2.6888,2.4013,2.7551,2.7226,2.6001,2.6106,2.6816,1.7246,1.7246,2.8516,2.7118,1.7683,1.4317,0.6292
CON8-0,SAA,1,2,3.971,3.1422,3.1636,3.1422,3.2748,3.3174,3.3174,3.1636,1.9446,3.1422,3.1422,1.9395,1.8172,3.1636,2.0195,2.0225,3.386,3.1658,1.8719,1.667,0.4601
CON8-0,SAA,2,2,2.004,1.7969,1.7969,1.7969,1.7559,1.8183,1.8183,1.7969,0.8132,1.7969,1.7969,0.8605,0.8762,1.7969,0.851,0.851,1.8183,1.7813,0.8308,0.8437,0.1706
CON8-0,SAA,3,5,2.5175,1.7091,1.6888,1.7091,2.0472,1.5909,1.6191,1.6207,1.4204,1.5668,1.7031,1.422,1.1346,1.5912,0.8016,0.8016,1.959,1.6167,0.717,1.0558,0.3376
CON8-0,SAA,4,4,2.6942,2.3806,2.2749,2.3806,2.3733,2.3556,2.3556,2.2548,1.3599,2.1648,2.4744,1.3174,1.5283,2.1648,1.6124,1.4684,2.1159,2.0814,1.3741,1.1505,0.4267
CON8-0,SAA,5,3,0.1948,0.1937,0.1536,0.1937,0.1948,0.1948,0.1948,0.1336,0.1287,0.1743,0.1737,0.1937,0.1948,0.1336,0.0682,0.0682,0.1948,0.1948,0.0823,0.0918,0.0344
CON8-0,SAA,6,5,0.4799,0.5058,0.5121,0.5058,0.3493,0.409,0.409,0.5058,0.2028,0.3633,0.3821,0.2801,0.614,0.3884,0.1754,0.1754,0.4799,0.3493,0.1575,0.2112,0.0475
CON8-0,SAA,7,2,0.0361,0.0361,0.0361,0.0361,0.0361,0.0361,0.0361,0.0361,0.0361,0.0361,0.0361,0.0361,0.0361,0.0361,0.0361,0.0361,0.0361,0.0361,0.0327,0.0149,0.0025
CON8-0,SAA,8,3,0.1467,0.1467,0.1467,0.1467,0.1467,0.1467,0.1467,0.1467,0.1961,0.1467,0.1467,0.104,0.1467,0.1467,0.1146,0.1146,0.1467,0.149,0.1194,0.0606,0.0142
CON8-0,SAA,9,4,1.2789,0.642,0.9351,0.642,0.8666,1.0025,1.0025,0.8143,0.3068,0.6535,0.642,0.3098,0.8327,0.6534,0.2723,0.2723,1.2402,0.6632,0.2772,0.5279,0.1218
CON8-0,SAA,10,3,0.0736,0.0669,0.1917,0.0669,0.0669,0.0736,0.0736,0.0669,0.0507,0.0669,0.0669,0.0507,0.0736,0.0669,0.1324,0.1324,0.0736,0.097,0.0802,0.0301,0.007
CON8-0,SAA,11,5,0.5079,0.4355,0.5877,0.4355,0.3325,0.3839,0.3839,0.3966,0.2087,0.4352,0.4167,0.181,0.5079,0.4021,0.2896,0.2583,0.5079,0.329,0.139,0.225,0.0642
CON8-0,SAA,12,3,0.0368,0.0368,0.0368,0.0368,0.0368,0.0368,0.0368,0.0368,0.0368,0.0368,0.0368,0.0368,0.0368,0.0368,0.0368,0.0368,0.0368,0.0368,0.0372,0.0149,0.0037
CON8-0,SAA,13,3,4.8452,4.2872,4.4371,4.2872,4.0592,4.1292,4.0094,4.2865,2.9161,4.1245,4.2872,2.9074,2.6918,4.1112,2.8059,2.9103,3.8518,3.9551,2.6858,2.1422,0.9979
CON8-0,SAA,14,2,2.6959,2.5302,2.5302,2.5302,2.4843,2.3749,2.3749,2.5302,2.3886,2.5302,2.5302,2.4843,2.6959,2.5302,2.5302,2.4231,2.5471,2.3749,2.3923,1.1822,0.973
CON3-9,Det,0,11,30.5858,17.5896,21.7387,17.7704,21.6834,20.4919,18.6704,18.8065,23.4475,16.2397,17.5395,17.5521,13.7607,16.2335,16.2335,13.5945,16.6041,16.1851,13.839,12.4043,8.1419
CON3-9,Det,1,11,0.8098,0.621,0.766,0.621,0.6228,0.8098,0.8098,0.7438,0.1998,0.4165,0.5614,0.1662,0.8098,0.4347,0.2601,0.213,0.8098,0.4447,0.1736,0.3281,0.1069
CON3-9,Det,2,16,36.3521,20.0424,26.9982,19.9234,26.2744,20.3175,30.5673,22.8333,29.2823,19.2094,19.6556,20.0873,17.6704,18.7785,18.7785,17.1358,18.911,18.4999,16.3581,13.9828,10.1975
CON3-9,Det,3,12,11.5879,6.5346,8.7348,6.1056,8.5678,6.587,11.5879,8.4961,6.9806,5.7804,6.1022,5.9657,5.7867,5.7176,4.8355,4.1482,6.0654,5.6612,4.0843,4.385,2.4015
CON3-9,SAA,0,7,1.9007,1.2983,1.6308,1.2983,1.288,0.9915,1.0692,1.5721,0.4499,0.9939,1.2972,0.4599,0.6888,0.9939,0.3769,0.3769,1.2622,0.946,0.3152,0.7843,0.1677
CON3-9,SAA,1,12,3.7478,1.9792,3.9749,1.9792,2.2048,2.3512,3.2608,3.3232,0.7765,1.8491,1.9603,0.7961,1.4263,1.8758,0.768,0.7768,2.1476,1.84,0.6973,1.5064,0.4221
CON3-9,SAA,2,10,5.4966,3.147,6.3464,3.147,3.7569,3.021,2.7898,4.6003,1.7856,3.0411,2.9878,1.806,1.6008,3.0107,1.2251,1.2341,3.388,2.6984,1.2503,2.253,0.7308
CON3-9,SAA,3,10,0.359,0.2674,0.5788,0.2674,0.2242,0.359,0.359,0.4891,0.1932,0.2237,0.2233,0.2026,0.8616,0.2235,0.1124,0.1124,0.359,0.2407,0.0963,0.1488,0.0509
CON3-9,SAA,4,11,0.7752,0.6643,0.846,0.6643,0.5638,0.7752,0.7752,0.6252,0.3126,0.6709,0.5465,0.2842,0.7752,0.491,0.173,0.173,0.7752,0.5097,0.1735,0.3215,0.0788
CON3-8,Det,0,14,57.39,31.8572,37.2081,31.6149,33.6885,40.9672,31.8997,35.8835,56.6248,31.9862,31.8166,31.4109,31.241,31.8338,31.3169,31.2288,31.9438,31.2207,31.0029,26.1154,23.9485
CON3-8,Det,1,8,2.5189,1.5163,2.0502,1.5163,1.4707,1.527,1.3606,2.0486,0.4853,1.458,1.5115,0.5944,0.8353,1.458,0.828,0.828,1.6011,1.4227,0.4666,1.0393,0.2405
CON3-8,Det,2,18,61.01,33.9808,35.6112,32.3967,35.804,41.6758,60.9045,34.0876,58.9289,32.292,32.9034,32.6932,32.7695,32.3115,32.1402,32.0698,32.8091,32.1443,31.921,24.7164,22.3576
CON3-8,Det,3,10,0.0,0.0,0.0,0.0,0.0,0.0,0.0,0.0,0.0,0.0,0.0,0.0,0.0,0.0,0.0,0.0,0.0,0.0,0.014,0.0,0.0
CON3-8,SAA,0,8,0.9728,0.4916,0.6788,0.4916,0.6299,0.7898,0.8384,0.6311,0.3187,0.6004,0.4916,0.3929,0.7639,0.6225,0.3099,0.3099,0.9728,0.5564,0.2328,0.3933,0.0986
CON3-8,SAA,1,9,4.6611,2.7397,3.4411,2.7397,3.4323,3.1416,2.9954,3.1548,1.996,2.4845,2.6503,1.9103,1.5255,2.4879,1.434,1.48,2.6816,2.3611,1.3334,1.9491,0.8077
CON3-8,SAA,2,10,4.3265,2.563,4.3868,2.563,3.227,2.5995,3.1093,3.3694,1.398,2.3035,2.38,1.4201,1.6867,2.3259,1.0375,1.0883,2.6985,2.2153,1.0079,1.7765,0.6035
CON3-8,SAA,3,13,2.6679,1.9334,2.3832,1.9334,1.7292,2.6679,2.6679,2.1485,0.8033,1.5343,1.6314,0.814,1.3378,1.4923,0.8517,0.8517,2.052,1.5282,0.7364,1.0926,0.3766
CON3-8,SAA,4,10,0.1084,0.0928,0.1279,0.0928,0.0657,0.1084,0.1084,0.1279,0.0425,0.059,0.0871,0.0095,0.1084,0.0443,0.0127,0.0127,0.1084,0.1045,0.0417,0.0443,0.0095
